#Wave		#Intensity
1198.312500	7305.888184
1197.150391	7268.507324
1195.990234	7294.263184
1194.830078	7241.122070
1193.667969	6988.735352
1192.507812	7049.805664
1191.345703	7106.704590
1190.183594	7088.898438
1189.021484	6925.901367
1187.859375	6866.653809
1186.697266	7089.427246
1185.535156	7030.171387
1184.373047	6877.658203
1183.208984	6872.342773
1182.046875	6867.028809
1180.882812	6969.448730
1179.720703	6852.262695
1178.556641	6871.806641
1177.392578	6839.576172
1176.228516	6879.818848
1175.064453	6872.437988
1173.900391	6846.431641
1172.734375	6681.791016
1171.570312	6680.653320
1170.406250	6687.790039
1169.240234	6796.268555
1168.074219	6590.389160
1166.908203	6494.159668
1165.744141	6573.674316
1164.578125	6539.485352
1163.410156	6625.164062
1162.244141	6380.231445
1161.078125	6428.723145
1159.912109	6462.740723
1158.744141	6281.977539
1157.576172	6398.597168
1156.410156	6544.077637
1155.242188	6439.761719
1154.074219	6364.372070
1152.906250	6291.071289
1151.738281	6329.195801
1150.570312	6156.919922
1149.400391	6195.053711
1148.232422	6204.307617
1147.062500	6201.188965
1145.894531	6173.336426
1144.724609	6133.127930
1143.554688	6150.626953
1142.384766	6207.263184
1141.214844	5936.370117
1140.044922	6081.579590
1138.875000	6070.247559
1137.703125	6180.385254
1136.533203	6164.922852
1135.361328	6081.549805
1134.191406	6185.455566
1133.019531	5966.321777
1131.847656	5963.247559
1130.675781	5845.001465
1129.503906	5782.315918
1128.332031	5875.903320
1127.158203	5990.014648
1125.986328	5865.678223
1124.814453	5883.171875
1123.640625	5802.041016
1122.466797	5885.273438
1121.294922	5857.569824
1120.121094	5916.122070
1118.947266	5754.967285
1117.773438	5797.094238
1116.597656	5679.115723
1115.423828	5793.064453
1114.250000	5685.385254
1113.074219	5784.933594
1111.900391	5671.138672
1110.724609	5567.636230
1109.548828	5576.937988
1108.373047	5703.085938
1107.197266	5632.424805
1106.021484	5430.632324
1104.845703	5610.012695
1103.669922	5451.313477
1102.492188	5585.567383
1101.316406	5545.703613
1100.138672	5503.806152
1098.960938	5648.217773
1097.783203	5530.583008
1096.605469	5525.545898
1095.427734	5444.802734
1094.250000	5503.201172
1093.072266	5383.625488
1091.894531	5411.337402
1090.714844	5281.594238
1089.537109	5354.290527
1088.357422	5210.292480
1087.177734	5287.063477
1085.998047	5333.157715
1084.818359	5197.408203
1083.638672	5325.208008
1082.458984	5232.394531
1081.279297	5137.570801
1080.097656	5173.441895
1078.917969	5199.094727
1077.736328	5277.802246
1076.556641	5166.709961
1075.375000	5104.620605
1074.193359	5115.987793
1073.011719	5039.651367
1071.830078	5230.472168
1070.648438	5013.463379
1069.464844	5081.914551
1068.283203	4968.949219
1067.099609	4957.911133
1065.917969	5010.037109
1064.734375	5035.662598
1063.550781	4894.267578
1062.367188	4883.249023
1061.183594	5002.540039
1060.000000	4855.115723
1058.816406	4724.023926
1057.630859	4729.321289
1056.447266	4795.655762
1055.261719	4746.012695
1054.078125	4716.726074
1052.892578	4854.204102
1051.707031	4625.649902
1050.521484	4754.964844
1049.335938	4717.565430
1048.150391	4667.985840
1046.964844	4673.283203
1045.777344	4648.105469
1044.591797	4606.687012
1043.404297	4748.056641
1042.216797	4633.538086
1041.031250	4456.124512
1039.843750	4410.707031
1038.656250	4633.189941
1037.468750	4518.768555
1036.279297	4495.679199
1035.091797	4517.222168
1033.904297	4427.215332
1032.714844	4574.479980
1031.525391	4377.044434
1030.337891	4459.402344
1029.148438	4482.958984
1027.958984	4413.297363
1026.769531	4303.140137
1025.580078	4377.351074
1024.388672	4449.511719
1023.199219	4228.033691
1022.009766	4265.776855
1020.818359	4372.330566
1019.626953	4185.384766
1018.437500	4146.221191
1017.246094	4281.064941
1016.054688	4296.514648
1014.863281	4192.631836
1013.669922	4244.489746
1012.478516	4179.065430
1011.287109	4139.941895
1010.093750	4171.570801
1008.900391	4124.378906
1007.708984	4141.855957
1006.515625	4110.845703
1005.322266	4160.634766
1004.128906	4022.604248
1002.935547	4141.038086
1001.742188	4059.581299
1000.546875	4066.959229
999.353516	4068.280273
998.158203	3980.824463
996.964844	3959.969238
995.769531	4029.884277
994.574219	4031.210449
993.378906	3988.177979
992.183594	4100.386230
990.988281	3888.048096
989.791016	3851.107422
988.595703	3947.162109
987.398438	3990.805420
986.203125	3939.766357
985.005859	3949.160400
983.808594	3884.051270
982.611328	3750.516846
981.414062	3824.348145
980.216797	3865.954346
979.019531	3893.461182
977.822266	3860.605225
976.623047	3775.463135
975.425781	3819.059570
974.226562	3848.565918
973.027344	4048.946045
971.828125	3937.698730
970.628906	4336.955566
969.429688	4904.862305
968.230469	5593.115723
967.031250	6387.592285
965.830078	6822.304688
964.630859	6632.383789
963.429688	5661.554199
962.228516	4558.575684
961.029297	4136.333496
959.828125	3826.605713
958.626953	3711.592041
957.425781	3712.961182
956.222656	3537.838867
955.021484	3495.121826
953.818359	3448.409668
952.617188	3596.154053
951.414062	3387.100098
950.210938	3428.599854
949.009766	3464.074463
947.806641	3407.391113
946.603516	3486.919434
945.398438	3372.179443
944.195312	3307.531982
942.992188	3359.010986
941.787109	3316.403809
940.583984	3405.884277
939.378906	3363.283447
938.173828	3326.698486
936.968750	3236.123779
935.763672	3325.556152
934.558594	3045.070557
933.353516	3254.447510
932.146484	3205.919678
930.941406	3275.311523
929.734375	3192.830322
928.527344	3158.321533
927.322266	3171.760254
926.115234	3203.167236
924.908203	3232.566650
923.701172	3126.207520
922.494141	3073.775391
921.285156	3145.089600
920.078125	3128.586914
918.869141	3090.145752
917.662109	2979.912598
916.453125	3128.968750
915.244141	3040.699463
914.035156	2978.376709
912.826172	3047.627441
911.617188	3025.181885
910.408203	3020.677002
909.197266	2942.462402
907.988281	3005.695801
906.777344	2999.204590
905.566406	2930.989502
904.357422	2876.733398
903.146484	2880.219971
901.935547	2995.152588
900.724609	2974.739502
899.511719	2854.861084
898.300781	2953.825684
897.089844	2865.812012
895.876953	2851.400146
894.664062	2829.041016
893.453125	2894.149902
892.240234	2881.727783
891.027344	2807.710938
889.814453	2717.825928
888.599609	2826.608887
887.386719	2845.982910
886.173828	2752.166016
884.958984	2856.916016
883.746094	2749.234131
882.531250	2742.807129
881.316406	2811.786621
880.101562	2741.863525
878.886719	2628.324219
877.671875	2711.170410
876.457031	2696.823242
875.240234	2607.141357
874.025391	2638.408936
872.808594	2576.514893
871.593750	2742.525391
870.376953	2650.915771
869.160156	2491.986572
867.943359	2598.508301
866.726562	2524.792480
865.507812	2561.975830
864.291016	2535.800537
863.074219	2517.551025
861.855469	2540.864014
860.636719	2544.383545
859.419922	2502.403564
858.201172	2452.526611
856.982422	2428.374268
855.763672	2418.070068
854.544922	2421.607422
853.324219	2587.214844
852.105469	2422.749512
850.884766	2398.622559
849.666016	2417.963867
848.445312	2374.094727
847.224609	2452.677002
846.003906	2294.299316
844.783203	2416.298096
843.562500	2362.590332
842.341797	2385.864258
841.119141	2330.207031
839.898438	2280.487061
838.675781	2437.885986
837.455078	2325.058350
836.232422	2306.912354
835.009766	2306.514648
833.787109	2308.088135
832.564453	2230.833008
831.339844	2271.826172
830.117188	2241.884277
828.894531	2194.225342
827.669922	2355.333252
826.445312	2203.313965
825.222656	2258.056641
823.998047	2255.698975
822.773438	2243.502197
821.548828	2195.891846
820.322266	2183.709229
819.097656	2210.870361
817.873047	2194.756104
816.646484	2210.107666
815.419922	2217.590332
814.195312	2144.480469
812.968750	2116.596680
811.742188	2234.127441
810.515625	2141.406250
809.289062	2117.465820
808.060547	2174.053955
806.833984	2087.281494
805.605469	2118.333252
804.378906	2080.672607
803.150391	2119.564941
801.921875	2129.010254
800.693359	2287.555420
799.464844	2296.968262
798.236328	2271.076172
797.007812	2290.292969
795.777344	2115.410645
794.548828	2071.921387
793.318359	2014.728027
792.089844	2041.813354
790.859375	2006.195801
789.628906	2117.503174
788.398438	2171.975586
787.167969	2106.981201
785.935547	2134.027100
784.705078	2164.978271
783.474609	2467.962158
782.242188	3038.924316
781.009766	3850.334961
779.779297	4919.674805
778.546875	6170.534180
777.314453	5995.433105
776.082031	4678.601562
774.847656	3041.640869
773.615234	2445.010010
772.380859	2157.333984
771.148438	2055.365234
769.914062	2012.034668
768.679688	1962.859741
767.447266	1987.906494
766.212891	1977.800903
764.976562	1922.800903
763.742188	1840.495361
762.507812	1851.885742
761.273438	1822.299683
760.037109	1880.506714
758.800781	1874.330566
757.566406	1907.157593
756.330078	1793.744019
755.093750	1752.496948
753.857422	1771.684448
752.619141	1763.583374
751.382812	1815.884521
750.146484	1833.103027
748.908203	1706.185547
747.671875	1774.048218
746.433594	1742.589111
745.195312	1816.261963
743.957031	1706.952148
742.718750	1720.279053
741.480469	1764.732178
740.240234	1698.285278
739.001953	1717.441650
737.763672	1598.519653
736.523438	1660.461914
735.283203	1710.718628
734.042969	1613.239624
732.802734	1667.373657
731.562500	1676.800171
730.322266	1643.484863
729.082031	1650.969849
727.839844	1642.916260
726.599609	1613.507324
725.357422	1599.638916
724.117188	1694.469849
722.875000	1676.710815
721.632812	1641.495239
720.390625	1654.790894
719.148438	1549.764404
717.904297	1687.186157
716.662109	1630.664307
715.417969	1521.819092
714.175781	1573.889404
712.931641	1581.368774
711.687500	1559.781128
710.443359	1590.507568
709.199219	1609.601685
707.955078	1653.864990
706.710938	1539.338379
705.466797	1566.175049
704.220703	1532.998535
702.974609	1515.315552
701.730469	1565.361450
700.484375	1549.613525
699.238281	1495.185791
697.992188	1510.398193
696.746094	1512.070190
695.500000	1432.544556
694.251953	1563.735229
693.005859	1520.947388
691.757812	1449.190430
690.509766	1477.918213
689.263672	1500.841064
688.015625	1490.924805
686.767578	1465.564575
685.519531	1486.546875
684.269531	1416.800415
683.021484	1420.414673
681.771484	1468.407959
680.523438	1419.922363
679.273438	1386.884766
678.023438	1434.858765
676.773438	1397.973511
675.523438	1444.000854
674.273438	1447.605591
673.023438	1428.082275
671.773438	1427.834717
670.521484	1367.863525
669.271484	1336.806519
668.019531	1334.648804
666.767578	1411.440063
665.515625	1349.587891
664.263672	1349.353760
663.011719	1397.233887
661.759766	1418.158081
660.505859	1371.738525
659.253906	1383.041992
658.000000	1330.874878
656.748047	1251.805176
655.494141	1282.348999
654.240234	1341.715698
652.986328	1293.435425
651.732422	1300.897339
650.476562	1317.962646
649.222656	1308.129395
647.968750	1317.505249
646.712891	1317.276611
645.457031	1311.288330
644.201172	1217.002197
642.947266	1341.540771
641.691406	1302.930054
640.433594	1296.948120
639.177734	1287.131836
637.921875	1244.714722
636.664062	1282.849854
635.408203	1234.696411
634.150391	1234.482056
632.892578	1284.098389
631.634766	1262.796875
630.376953	1300.895508
629.119141	1314.078613
627.861328	1197.021118
626.601562	1240.855957
625.343750	1257.871582
624.083984	1234.682251
622.826172	1201.931396
621.566406	1186.414062
620.306641	1245.518311
619.046875	1187.914795
617.787109	1224.047363
616.525391	1191.326538
615.265625	1217.886230
614.003906	1196.647339
612.744141	1276.711670
611.482422	1238.271606
610.220703	1239.966919
608.958984	1205.366943
607.697266	1214.707031
606.435547	1172.485107
605.173828	1199.010864
603.910156	1194.984619
602.648438	1141.336304
601.384766	1114.422363
600.123047	1184.821899
598.859375	1140.741211
597.595703	1144.357422
596.332031	1165.134644
595.066406	1136.333130
593.802734	1136.135498
592.539062	1118.784424
591.273438	1103.345093
590.009766	1065.047729
588.744141	1116.295898
587.478516	1135.147827
586.212891	1140.663330
584.947266	1104.289795
583.681641	1096.483276
582.414062	1096.292480
581.148438	1158.899292
579.880859	1118.742554
578.615234	1091.915894
577.347656	1095.529785
576.080078	1102.945679
574.812500	1095.148560
573.544922	1056.938599
572.277344	1079.562378
571.009766	1107.879028
569.740234	1086.786499
568.472656	1092.296265
567.203125	1069.314331
565.933594	1029.249512
564.664062	1013.881165
563.394531	1093.434204
562.125000	1089.447876
560.855469	1055.100342
559.585938	997.996643
558.314453	1001.616882
557.042969	1010.925842
555.773438	1035.402222
554.501953	999.197693
553.230469	1093.807739
551.958984	1050.024170
550.687500	1055.526367
549.416016	1026.922119
548.142578	1034.320679
546.871094	986.789795
545.597656	1026.385620
544.326172	969.405640
543.052734	1058.209717
541.779297	991.780457
540.505859	980.253357
539.232422	995.218933
537.957031	974.236633
536.683594	991.089355
535.408203	992.807739
534.134766	1013.432739
532.859375	994.352112
531.583984	937.476562
530.308594	984.556763
529.033203	982.495728
527.757812	948.320923
526.482422	950.044373
525.205078	978.205139
523.929688	949.713135
522.652344	949.547546
521.375000	928.620178
520.099609	985.071533
518.822266	939.617004
517.542969	935.680298
516.265625	907.225220
514.988281	963.640869
513.708984	893.710571
512.431641	965.189880
511.152344	932.979797
509.873047	913.972229
508.595703	932.654297
507.316406	906.118103
506.035156	928.561951
504.755859	858.722900
503.476562	909.409607
502.195312	918.663452
500.916016	905.327942
499.634766	937.161377
498.353516	888.078247
497.072266	921.784790
495.791016	867.078796
494.509766	970.356995
493.228516	859.255310
491.947266	887.303528
490.664062	845.798523
489.380859	885.114563
488.099609	834.229858
486.816406	854.748474
485.533203	894.042236
484.250000	871.351196
482.966797	889.974915
481.681641	831.624573
480.398438	854.002441
479.113281	806.938293
477.830078	827.436401
476.544922	847.927246
475.259766	793.386230
473.974609	870.134583
472.689453	858.732788
471.404297	866.081299
470.117188	820.946655
468.832031	839.543030
467.544922	848.764587
466.259766	813.023132
464.972656	857.833008
463.685547	820.229736
462.398438	844.426880
461.111328	842.407288
459.824219	847.875122
458.535156	843.984192
457.248047	802.673950
455.958984	810.016479
454.671875	804.263733
453.382812	828.433838
452.093750	822.679810
450.804688	850.577026
449.513672	742.022034
448.224609	790.479736
446.935547	853.867798
445.644531	812.620422
444.355469	814.346130
443.064453	808.601379
441.773438	758.047913
440.482422	757.915344
439.191406	761.515686
437.900391	781.909973
436.607422	744.457092
435.316406	833.869934
434.023438	718.084473
432.732422	805.605774
431.439453	742.071777
430.146484	801.595581
428.853516	810.774536
427.560547	685.776611
426.267578	762.047729
424.972656	730.245544
423.679688	758.055908
422.384766	711.367798
421.089844	728.000305
419.794922	820.951294
418.501953	764.970337
417.205078	785.306519
415.910156	725.630127
414.615234	693.878601
413.320312	734.675781
412.023438	715.951050
410.726562	738.137146
409.431641	764.033325
408.134766	741.595947
406.837891	682.000122
405.541016	737.620239
404.242188	731.918091
402.945312	737.361938
401.648438	705.663574
400.349609	748.243713
399.050781	725.836365
397.751953	714.572998
396.455078	664.343689
395.154297	738.442627
393.855469	727.182922
392.556641	740.038635
391.257812	673.150269
389.957031	719.384399
388.656250	693.305725
387.357422	661.675842
386.056641	696.768982
384.755859	705.910767
383.455078	676.147705
382.154297	670.472778
380.851562	637.022705
379.550781	685.049622
378.248047	662.715637
376.947266	638.538574
375.644531	697.643005
374.341797	673.468262
373.039062	677.049866
371.736328	686.178894
370.431641	656.471130
369.128906	661.902649
367.824219	615.572449
366.521484	633.946899
365.216797	650.466980
363.912109	690.999939
362.607422	711.198669
361.302734	677.828918
359.998047	646.317444
358.693359	653.589233
357.386719	640.552795
356.082031	653.359924
354.775391	653.245300
353.468750	621.765625
352.162109	647.482056
350.855469	639.990967
349.548828	591.933899
348.242188	661.890869
346.935547	634.123962
345.626953	641.384888
344.318359	595.203918
343.011719	626.420410
341.703125	604.205383
340.394531	594.890503
339.085938	661.078003
337.777344	622.298401
336.466797	649.801086
335.158203	598.153748
333.847656	612.769897
332.539062	623.701294
331.228516	616.233704
329.917969	586.698608
328.607422	617.856140
327.296875	639.810059
325.984375	658.079773
324.673828	608.341187
323.363281	553.107361
322.050781	613.639221
320.738281	620.879089
319.425781	631.789551
318.113281	547.209900
316.800781	651.763062
315.488281	589.237122
314.175781	596.474792
312.861328	625.729736
311.548828	616.446472
310.234375	592.491699
308.919922	610.727722
307.605469	590.449707
306.291016	568.345459
304.976562	568.245544
303.662109	555.316589
302.347656	557.051331
301.031250	593.595093
299.714844	536.706116
298.400391	576.903381
297.083984	552.997437
295.767578	598.670044
294.451172	576.599121
293.134766	538.064514
291.816406	565.417358
290.500000	568.976868
289.181641	568.876831
287.865234	565.119019
286.546875	544.905640
285.228516	557.607300
283.910156	572.132446
282.591797	529.997498
281.271484	555.485779
279.953125	537.118713
278.632812	546.157288
277.314453	522.319397
275.994141	567.876709
274.673828	516.658569
273.353516	512.916992
272.033203	529.251770
270.712891	536.457336
269.390625	530.889832
268.070312	534.444458
266.748047	541.645264
265.427734	545.196716
264.105469	545.100708
262.783203	490.321991
261.460938	513.927368
260.138672	488.327209
258.814453	519.211731
257.492188	519.120300
256.167969	517.207764
254.845703	498.908295
253.521484	475.153778
252.197266	496.912384
250.873047	495.004974
249.548828	498.556885
248.222656	487.553650
246.898438	503.837952
245.574219	496.474823
244.248047	530.934448
242.921875	505.389618
241.595703	501.665314
240.269531	501.576904
238.943359	490.586578
237.617188	461.433441
236.291016	477.699249
234.962891	484.879150
233.636719	504.766449
232.308594	477.446686
230.980469	490.067993
229.652344	471.834106
228.324219	482.637482
226.996094	497.065247
225.667969	506.046539
224.337891	471.501434
223.009766	494.989197
221.679688	476.773651
220.349609	478.502075
219.019531	485.666443
217.689453	478.333282
216.359375	481.872009
215.029297	458.241028
213.699219	461.782013
212.367188	468.942932
211.035156	439.895874
209.705078	530.315857
208.373047	542.889709
207.041016	618.785034
205.708984	707.316528
204.375000	752.408569
203.042969	625.690918
201.710938	517.098328
200.376953	457.352417
199.042969	459.079102
197.710938	469.840546
196.376953	504.086029
195.042969	457.029602
193.707031	475.010132
192.373047	442.421814
191.039062	454.982086
189.703125	471.148254
188.367188	425.943878
187.033203	443.913940
185.697266	499.766052
184.361328	425.718262
183.025391	450.893097
181.687500	432.780914
180.351562	412.872192
179.013672	436.233276
177.677734	425.342438
176.339844	427.069275
175.001953	425.192169
173.664062	412.507629
172.326172	412.434753
170.988281	459.180267
169.648438	374.480865
168.310547	455.417847
166.970703	428.341095
165.632812	377.881226
164.292969	422.792358
162.953125	399.333252
161.613281	393.867218
160.271484	408.182892
158.931641	418.897827
157.591797	399.050964
156.250000	407.966461
154.908203	425.863251
153.568359	384.466766
152.226562	452.656525
150.884766	422.045502
149.541016	398.627808
148.199219	396.762024
146.857422	394.896851
145.513672	373.290985
144.169922	405.523285
142.828125	389.305267
141.484375	398.204987
140.140625	398.134521
138.794922	399.857178
137.451172	401.579193
136.107422	392.545929
134.761719	421.150543
133.417969	390.615204
132.072266	381.588593
130.726562	372.565186
129.380859	424.434235
128.035156	395.710419
126.689453	363.416260
125.341797	381.251068
123.996094	379.393982
122.648438	373.958984
121.300781	395.360321
119.953125	352.362854
118.607422	368.395416
117.257812	371.906219
115.910156	377.203461
114.562500	387.860931
113.212891	400.301666
111.865234	355.562164
110.515625	371.577057
109.166016	380.441803
107.816406	392.874969
106.466797	412.445648
105.117188	369.528687
103.767578	392.666229
102.416016	376.535919
101.066406	347.921783
99.714844	372.834686
98.363281	353.149231
97.011719	392.318512
95.660156	349.458191
94.308594	340.483093
92.957031	383.198395
91.603516	370.656464
90.251953	377.717529
88.898438	384.776062
87.544922	365.116241
86.191406	354.367096
84.837891	357.865112
83.484375	379.162964
82.130859	361.297821
80.775391	377.249054
79.421875	364.728027
78.066406	330.865295
76.710938	384.162506
75.355469	311.187592
74.000000	341.356689
72.644531	327.075470
71.289062	392.776398
69.931641	326.959442
68.576172	371.317413
67.218750	360.593597
65.861328	323.233459
64.505859	356.914276
63.148438	326.669525
61.789062	347.912323
60.431641	358.499084
59.074219	322.946808
57.714844	312.244781
56.357422	290.903748
54.998047	278.437683
53.638672	232.285751
52.279297	189.695908
50.919922	173.709335
49.560547	104.561546
