#Wave		#Intensity
1198.312500	6687.026367
1197.150391	6657.952637
1195.990234	6802.165039
1194.830078	6680.599609
1193.667969	6806.077637
1192.507812	6638.895508
1191.345703	6677.189941
1190.183594	6464.444824
1189.021484	6469.567383
1187.859375	6580.456543
1186.697266	6620.807617
1185.535156	6408.215820
1184.373047	6500.402832
1183.208984	6358.367676
1182.046875	6340.708496
1180.882812	6337.557617
1179.720703	6382.049805
1178.556641	6376.821289
1177.392578	6415.079102
1176.228516	6397.424316
1175.064453	6381.845215
1173.900391	6233.812500
1172.734375	6377.602539
1171.570312	6182.035156
1170.406250	6176.845215
1169.240234	6115.813965
1168.074219	6073.414551
1166.908203	6078.583008
1165.744141	6098.219727
1164.578125	6008.307129
1163.410156	6032.081543
1162.244141	6183.948242
1161.078125	6065.145020
1159.912109	5977.363770
1158.744141	5959.824707
1157.576172	5969.133301
1156.410156	5846.317871
1155.242188	5938.203125
1154.074219	5918.618652
1152.906250	5853.646973
1151.738281	5747.437988
1150.570312	5835.151367
1149.400391	5883.651367
1148.232422	5713.571777
1147.062500	5667.243652
1145.894531	5594.135254
1144.724609	5797.207031
1143.554688	5740.584961
1142.384766	5702.523926
1141.214844	5666.535156
1140.044922	5704.698730
1138.875000	5483.401855
1137.703125	5568.935059
1136.533203	5658.555176
1135.361328	5610.255371
1134.191406	5465.259766
1133.019531	5548.679199
1131.847656	5479.852051
1130.675781	5454.237793
1129.503906	5368.999512
1128.332031	5359.859863
1127.158203	5326.056152
1125.986328	5292.264160
1124.814453	5320.129883
1123.640625	5308.949707
1122.466797	5357.345215
1121.294922	5329.731445
1120.121094	5248.735840
1118.947266	5299.168945
1117.773438	5341.373535
1116.597656	5453.346680
1115.423828	5243.103027
1114.250000	5207.328613
1113.074219	5114.127441
1111.900391	5304.001953
1110.724609	5204.663574
1109.548828	5093.056641
1108.373047	5172.137207
1107.197266	5214.297363
1106.021484	5156.026855
1104.845703	5040.406250
1103.669922	5041.594238
1102.492188	5102.181152
1101.316406	5021.442383
1100.138672	5024.680176
1098.960938	4950.123535
1097.783203	5172.384766
1096.605469	5085.548828
1095.427734	5111.280273
1094.250000	5067.445801
1093.072266	5074.762207
1091.894531	5082.076172
1090.714844	5028.044922
1089.537109	4851.367676
1088.357422	4838.274902
1087.177734	4939.633789
1085.998047	4752.844727
1084.818359	4831.710449
1083.638672	4830.884766
1082.458984	4907.667480
1081.279297	4880.283691
1080.097656	4644.665039
1078.917969	4713.274414
1077.736328	4743.083008
1076.556641	4621.878906
1075.375000	4661.893555
1074.193359	4620.299805
1073.011719	4662.340332
1071.830078	4588.133301
1070.648438	4558.806152
1069.464844	4647.719727
1068.283203	4579.667480
1067.099609	4556.469238
1065.917969	4578.102051
1064.734375	4528.429688
1063.550781	4421.745605
1062.367188	4457.644531
1061.183594	4416.162109
1060.000000	4423.549805
1058.816406	4491.995117
1057.630859	4430.177246
1056.447266	4297.167969
1055.261719	4453.074219
1054.078125	4377.056641
1052.892578	4290.896973
1051.707031	4306.429199
1050.521484	4309.758789
1049.335938	4331.379883
1048.150391	4233.092773
1046.964844	4275.038086
1045.777344	4233.676758
1044.591797	4210.609863
1043.404297	4138.810547
1042.216797	4166.529297
1041.031250	4182.057617
1039.843750	4205.699707
1038.656250	4113.655762
1037.468750	4131.213379
1036.279297	3994.581543
1035.091797	4018.238770
1033.904297	3934.401367
1032.714844	4043.223633
1031.525391	3985.766113
1030.337891	4027.650879
1029.148438	3935.762207
1027.958984	3999.930420
1026.769531	4009.375732
1025.580078	4030.971191
1024.388672	3902.689453
1023.199219	3835.198975
1022.009766	3913.500977
1020.818359	3904.734131
1019.626953	3932.399902
1018.437500	3947.915039
1017.246094	3908.798584
1016.054688	3859.581055
1014.863281	3767.907959
1013.669922	3734.908447
1012.478516	3754.486816
1011.287109	3745.758057
1010.093750	3674.377686
1008.900391	3712.142822
1007.708984	3675.139648
1006.515625	3799.754639
1005.322266	3801.123535
1004.128906	3644.980225
1002.935547	3660.508057
1001.742188	3791.095703
1000.546875	3713.749268
999.353516	3779.706787
998.158203	3649.929688
996.964844	3723.944580
995.769531	3614.390869
994.574219	3642.003906
993.378906	3467.980957
992.183594	3608.501221
990.988281	3585.711426
989.791016	3492.396240
988.595703	3624.780273
987.398438	3640.275391
986.203125	3569.154541
985.005859	3594.722656
983.808594	3541.755371
982.611328	3396.200684
981.414062	3451.977295
980.216797	3539.934326
979.019531	3529.266602
977.822266	3488.426025
976.623047	3403.347656
975.425781	3465.107910
974.226562	3490.653320
973.027344	3634.803467
971.828125	3740.713135
970.628906	3957.120361
969.429688	4267.893555
968.230469	5030.589844
967.031250	5582.112793
965.830078	5962.738770
964.630859	5469.758789
963.429688	4717.961914
962.228516	4068.794922
961.029297	3642.622559
959.828125	3375.118408
958.626953	3302.313721
957.425781	3239.563477
956.222656	3291.152832
955.021484	3192.331543
953.818359	3209.827881
952.617188	3157.158691
951.414062	3080.457275
950.210938	3120.005859
949.009766	3111.456299
947.806641	3078.871338
946.603516	3064.323242
945.398438	3019.742676
944.195312	3015.219971
942.992188	3036.722168
941.787109	3032.197754
940.583984	2937.625244
939.378906	3039.159668
938.173828	3016.633301
936.968750	2918.111572
935.763672	2805.625488
934.558594	2929.105957
933.353516	2906.613281
932.146484	2936.094727
930.941406	2897.621582
929.734375	2873.147705
928.527344	2808.728760
927.322266	2810.243652
926.115234	2857.688477
924.908203	2787.315186
923.701172	2776.854736
922.494141	2862.203857
921.285156	2763.927002
920.078125	2863.215820
918.869141	2691.159912
917.662109	2744.551270
916.453125	2791.941650
915.244141	2721.675293
914.035156	2707.252686
912.826172	2654.963867
911.617188	2686.393555
910.408203	2729.767334
909.197266	2675.509033
907.988281	2760.698730
906.777344	2614.844238
905.566406	2715.944092
904.357422	2705.522949
903.146484	2535.867432
901.935547	2682.701416
900.724609	2594.689209
899.511719	2592.253662
898.300781	2450.581299
897.089844	2499.879150
895.876953	2487.518555
894.664062	2499.019287
893.453125	2542.319824
892.240234	2512.071533
891.027344	2485.807861
889.814453	2455.579590
888.599609	2477.007324
887.386719	2434.874512
886.173828	2452.326904
884.958984	2513.450684
883.746094	2483.243164
882.531250	2441.138184
881.316406	2450.639648
880.101562	2434.346191
878.886719	2390.287109
877.671875	2427.558594
876.457031	2324.027100
875.240234	2458.445068
874.025391	2362.872803
872.808594	2421.924072
871.593750	2399.709717
870.376953	2425.052979
869.160156	2289.933594
867.943359	2329.150635
866.726562	2237.659180
865.507812	2288.751221
864.291016	2226.991211
863.074219	2278.067139
861.855469	2244.034180
860.636719	2219.905518
859.419922	2274.912354
858.201172	2183.539795
856.982422	2280.061523
855.763672	2232.216797
854.544922	2212.064209
853.324219	2245.283447
852.105469	2122.375977
850.884766	2149.671631
849.666016	2188.810547
848.445312	2036.349243
847.224609	2140.661621
846.003906	2156.088379
844.783203	2132.027832
843.562500	2117.844238
842.341797	2072.090576
841.119141	2085.545166
839.898438	2016.139893
838.675781	2035.516479
837.455078	2139.684814
836.232422	2113.683838
835.009766	1998.979370
833.787109	2124.781494
832.564453	2079.089111
831.339844	2003.857056
830.117188	2009.421753
828.894531	2013.014648
827.669922	2006.759644
826.445312	2033.979736
825.222656	2002.130371
823.998047	1942.735474
822.773438	2009.312012
821.548828	2008.965576
820.322266	2018.455688
819.097656	1953.197632
817.873047	1946.960938
816.646484	1968.254395
815.419922	1910.902344
814.195312	1883.054199
812.968750	1920.069580
811.742188	1900.089111
810.515625	1872.256958
809.289062	1921.040405
808.060547	1914.817261
806.833984	1938.049805
805.605469	1865.075684
804.378906	1892.234375
803.150391	1931.159180
801.921875	1871.959229
800.693359	1967.768433
799.464844	2045.890747
798.236328	1980.817871
797.007812	1982.436890
795.777344	1911.515625
794.548828	1887.663452
793.318359	1848.140503
792.089844	1887.011841
790.859375	1782.849731
789.628906	1862.854370
788.398438	1925.204712
787.167969	1897.458008
785.935547	1857.973999
784.705078	1935.952637
783.474609	2137.204346
782.242188	2579.074219
781.009766	3363.173828
779.779297	4325.010254
778.546875	5278.691406
777.314453	4939.485840
776.082031	3683.445801
774.847656	2556.854980
773.615234	2177.251221
772.380859	1893.529541
771.148438	1805.282837
769.914062	1783.483154
768.679688	1777.315796
767.447266	1698.898438
766.212891	1692.747681
764.976562	1672.934326
763.742188	1621.899902
762.507812	1678.210449
761.273438	1660.360840
760.037109	1656.172363
758.800781	1648.084595
757.566406	1593.198120
756.330078	1548.079102
755.093750	1580.951050
753.857422	1539.747803
752.619141	1621.327515
751.382812	1570.389404
750.146484	1542.845459
748.908203	1567.898804
747.671875	1505.312134
746.433594	1485.581543
745.195312	1471.697876
743.957031	1516.209473
742.718750	1492.595093
741.480469	1486.499878
740.240234	1511.532227
739.001953	1507.380859
737.763672	1493.507446
736.523438	1477.694458
735.283203	1457.998779
734.042969	1434.422729
732.802734	1482.757690
731.562500	1431.983398
730.322266	1468.646118
729.082031	1483.930542
727.839844	1510.861572
726.599609	1454.292358
725.357422	1556.930176
724.117188	1414.969604
722.875000	1438.012451
721.632812	1441.644165
720.390625	1472.434082
719.148438	1445.024414
717.904297	1450.592163
716.662109	1353.393188
715.417969	1440.396973
714.175781	1411.073242
712.931641	1403.077148
711.687500	1338.892944
710.443359	1354.159302
709.199219	1382.979126
707.955078	1382.739624
706.710938	1345.710938
705.466797	1382.260742
704.220703	1380.085815
702.974609	1350.817749
701.730469	1377.672852
700.484375	1406.453247
699.238281	1348.181763
697.992188	1363.419556
696.746094	1291.640503
695.500000	1308.816040
694.251953	1269.930786
693.005859	1285.171509
691.757812	1317.797241
690.509766	1315.636963
689.263672	1301.887939
688.015625	1272.693604
686.767578	1340.055054
685.519531	1351.406250
684.269531	1293.264771
683.021484	1277.601318
681.771484	1279.309448
680.523438	1290.663086
679.273438	1267.292480
678.023438	1270.930054
676.773438	1239.857910
675.523438	1216.508057
674.273438	1266.413940
673.023438	1241.140381
671.773438	1256.340332
670.521484	1242.636597
669.271484	1128.773315
668.019531	1276.871826
666.767578	1282.427124
665.515625	1197.494507
664.263672	1216.535767
663.011719	1225.947632
661.759766	1218.038086
660.505859	1208.207275
659.253906	1134.902344
658.000000	1125.089233
656.748047	1094.127808
655.494141	1130.466675
654.240234	1207.159668
652.986328	1158.902832
651.732422	1154.858643
650.476562	1170.028076
649.222656	1185.192139
647.968750	1179.224854
646.712891	1106.051514
645.457031	1198.014526
644.201172	1128.702271
642.947266	1151.537109
641.691406	1103.364868
640.433594	1160.730225
639.177734	1145.182861
637.921875	1118.133545
636.664062	1158.208252
635.408203	1098.572998
634.150391	1119.468140
632.892578	1134.606323
631.634766	1136.325562
630.376953	1103.557861
629.119141	1097.619629
627.861328	1135.733643
626.601562	1139.366211
625.343750	1133.424561
624.083984	1144.713135
622.826172	1075.613770
621.566406	1130.920532
620.306641	1100.112183
619.046875	1107.572754
617.787109	1139.894043
616.525391	1074.679810
615.265625	1091.700195
614.003906	1068.571655
612.744141	1139.102051
611.482422	1108.329468
610.220703	1110.047485
608.958984	1048.726562
607.697266	1029.445190
606.435547	1132.383789
605.173828	1042.452026
603.910156	1061.360107
602.648438	1015.369446
601.384766	1009.468201
600.123047	1011.200623
598.859375	1020.562744
597.595703	1033.736206
596.332031	1064.067383
595.066406	1029.563477
593.802734	993.165405
592.539062	998.710510
591.273438	1078.572266
590.009766	985.026245
588.744141	996.284607
587.478516	975.160583
586.212891	1005.459473
584.947266	990.052979
583.681641	957.519287
582.414062	987.805237
581.148438	966.700928
579.880859	972.240601
578.615234	977.778320
577.347656	893.921875
576.080078	983.142944
574.812500	971.564087
573.544922	956.187256
572.277344	976.927917
571.009766	933.050781
569.740234	959.488098
568.472656	995.414368
567.203125	970.549988
565.933594	951.391174
564.664062	884.772705
563.394531	960.551636
562.125000	892.056641
560.855469	969.705505
559.585938	893.643372
558.314453	916.251770
557.042969	946.438965
555.773438	946.274170
554.501953	915.773254
553.230469	913.718079
551.958984	904.082153
550.687500	930.455017
549.416016	899.977905
548.142578	886.560608
546.871094	907.240479
545.597656	916.550964
544.326172	897.457581
543.052734	893.515137
541.779297	897.144897
540.505859	898.880981
539.232422	845.746887
537.957031	921.268433
536.683594	898.411133
535.408203	856.651245
534.134766	867.846313
532.859375	854.462280
531.583984	907.235413
530.308594	859.833679
529.033203	872.909668
527.757812	806.639526
526.482422	848.051514
525.205078	838.461548
523.929688	811.882019
522.652344	834.393677
521.375000	866.334656
520.099609	826.554321
518.822266	849.051514
517.542969	862.108643
516.265625	801.602356
514.988281	903.295410
513.708984	806.979187
512.431641	806.838440
511.152344	770.886353
509.873047	846.131042
508.595703	783.806458
507.316406	828.881470
506.035156	855.105713
504.755859	792.812134
503.476562	768.196960
502.195312	762.415405
500.916016	820.629883
499.634766	794.140747
498.353516	767.660889
497.072266	729.903015
495.791016	812.533691
494.509766	789.825439
493.228516	808.489685
491.947266	736.913086
490.664062	740.543579
489.380859	819.341736
488.099609	777.862976
486.816406	800.269958
485.533203	755.052490
484.250000	764.310242
482.966797	700.338928
481.681641	726.498169
480.398438	732.002136
479.113281	784.419128
477.830078	748.632935
476.544922	727.866760
475.259766	705.232239
473.974609	778.245361
472.689453	755.609863
471.404297	774.224243
470.117188	777.837585
468.832031	747.718018
467.544922	762.576599
466.259766	777.429932
464.972656	721.104187
463.685547	732.214172
462.398438	735.830933
461.111328	763.782593
459.824219	713.113525
458.535156	763.515625
457.248047	718.477356
455.958984	722.093201
454.671875	688.300110
453.382812	712.490479
452.093750	712.365967
450.804688	734.674194
449.513672	742.022034
448.224609	715.729858
446.935547	687.578430
445.644531	700.534851
444.355469	691.073547
443.064453	679.748047
441.773438	703.901611
440.482422	647.774963
439.191406	655.127502
437.900391	720.327576
436.607422	699.677673
435.316406	662.245667
434.023438	716.219299
432.732422	667.608459
431.439453	639.524170
430.146484	699.065918
428.853516	648.619629
427.560547	663.414307
426.267578	668.887817
424.972656	657.593567
423.679688	670.516296
422.384766	692.745605
421.089844	647.938904
419.794922	632.932922
418.501953	655.157043
417.205078	642.015991
415.910156	679.115417
414.615234	660.393860
413.320312	673.297791
412.023438	609.953064
410.726562	635.876343
409.431641	674.803162
408.134766	644.946838
406.837891	646.692200
405.541016	616.851196
404.242188	646.465698
402.945312	624.064514
401.648438	627.669189
400.349609	595.995605
399.050781	633.018433
397.751953	636.619568
396.455078	627.229553
395.154297	627.119629
393.855469	647.415405
392.556641	632.464111
391.257812	676.859131
389.957031	643.367004
388.656250	615.447876
387.357422	632.020935
386.056641	605.966614
384.755859	642.916138
383.455078	590.934570
382.154297	585.274597
380.851562	594.431030
379.550781	577.663513
378.248047	621.990112
376.947266	638.538574
375.644531	577.359741
374.341797	597.610535
373.039062	547.559448
371.736328	604.799194
370.431641	576.954895
369.128906	558.364807
367.824219	589.692505
366.521484	587.740845
365.216797	558.071106
363.912109	607.858215
362.607422	598.515259
361.302734	554.083557
359.998047	577.992493
358.693359	528.041016
357.386719	570.405762
356.082031	570.305725
354.775391	544.371094
353.468750	535.050537
352.162109	555.248108
350.855469	564.372437
349.548828	527.392822
348.242188	516.237976
346.935547	580.665833
345.626953	582.406982
344.318359	589.675659
343.011719	563.778381
341.703125	571.047791
340.394531	589.365173
339.085938	546.908508
337.777344	511.831238
336.466797	574.328430
335.158203	506.130096
333.847656	564.926025
332.539062	513.311646
331.228516	524.258545
329.917969	513.131409
328.607422	496.491547
327.296875	525.820923
325.984375	511.022858
324.673828	527.474060
323.363281	558.620056
322.050781	521.777039
320.738281	521.685364
319.425781	532.613281
318.113281	503.139313
316.800781	506.722809
315.488281	517.647583
314.175781	523.062500
312.861328	528.475525
311.548828	506.366730
310.234375	539.295837
308.919922	504.354736
307.605469	540.939941
306.291016	507.844177
304.976562	502.255768
303.662109	483.840179
302.347656	491.084747
301.031250	469.013397
299.714844	533.042603
298.400391	503.645813
297.083984	496.232788
295.767578	507.130310
294.451172	479.584015
293.134766	497.801178
291.816406	472.096008
290.500000	504.944122
289.181641	470.100769
287.865234	451.729431
286.546875	490.049377
285.228516	497.276031
283.910156	471.597961
282.591797	445.928894
281.271484	495.186371
279.953125	465.868286
278.632812	482.225830
277.314453	463.878052
275.994141	471.100281
274.673828	432.678741
273.353516	487.362427
272.033203	489.101654
270.712891	454.346558
269.390625	479.807648
268.070312	466.954895
266.748047	475.991302
265.427734	481.377686
264.105469	446.654449
262.783203	444.753052
261.460938	468.366425
260.138672	464.639709
258.814453	426.300171
257.492188	466.297546
256.167969	435.255798
254.845703	466.133301
253.521484	466.051208
252.197266	429.565277
250.873047	449.508179
249.548828	445.789917
248.222656	449.349823
246.898438	440.176117
245.574219	451.010101
244.248047	452.748901
242.921875	438.125549
241.595703	439.865967
240.269531	428.884613
238.943359	443.344910
237.617188	410.566772
236.291016	439.555969
234.962891	437.662445
233.636719	406.718292
232.308594	437.508179
230.980469	406.574921
229.652344	426.465454
228.324219	406.431580
226.996094	386.404755
225.667969	411.729614
224.337891	433.418640
223.009766	409.771301
221.679688	413.324677
220.349609	413.251801
219.019531	420.427643
217.689453	405.858551
216.359375	434.771759
215.029297	447.373657
213.699219	412.887451
212.367188	412.814636
211.035156	391.018555
209.705078	427.148590
208.373047	483.171814
207.041016	502.989014
205.708984	653.046753
204.375000	680.061584
203.042969	564.206848
201.710938	452.009033
200.376953	397.697754
199.042969	421.123749
197.710938	431.891876
196.376953	402.907471
195.042969	373.933289
193.707031	391.928497
192.373047	382.830292
191.039062	386.373688
189.703125	404.357117
188.367188	398.871185
187.033203	371.732819
185.697266	378.884003
184.361328	393.248230
183.025391	367.928772
181.687500	362.454010
180.351562	411.069244
179.013672	383.957397
177.677734	378.482666
176.339844	369.405914
175.001953	344.117401
173.664062	390.891510
172.326172	367.409119
170.988281	356.539978
169.648438	356.476959
168.310547	363.614258
166.970703	347.352234
165.632812	347.290833
164.292969	332.836548
162.953125	386.741669
161.613281	379.479370
160.271484	347.045380
158.931641	336.196960
157.591797	343.327637
156.250000	381.008331
154.908203	375.550293
153.568359	335.959259
152.226562	357.454956
150.884766	344.820160
149.541016	326.802979
148.199219	357.265350
146.857422	376.946991
145.513672	364.317657
144.169922	337.337952
142.828125	319.337952
141.484375	326.456329
140.140625	374.820343
138.794922	367.581726
137.451172	346.003510
136.107422	358.489410
134.761719	336.920441
133.417969	349.403503
132.072266	372.631134
130.726562	322.412170
129.380859	331.309418
128.035156	318.716980
126.689453	318.660583
125.341797	331.133545
123.996094	295.283051
122.648438	327.437775
121.300781	357.792145
119.953125	332.687775
118.607422	336.205536
117.257812	307.537842
115.910156	309.271088
114.562500	280.618286
113.212891	332.393341
111.865234	323.400757
110.515625	309.052063
109.166016	326.858459
107.816406	325.014771
106.466797	314.244324
105.117188	289.196381
103.767578	301.639069
102.416016	335.491699
101.066406	310.453278
99.714844	326.453339
98.363281	317.477600
97.011719	285.322571
95.660156	322.713959
94.308594	304.830414
92.957031	290.517853
91.603516	318.978394
90.251953	320.703552
88.898438	295.707520
87.544922	313.465637
86.191406	340.121185
84.837891	288.428589
83.484375	288.377472
82.130859	320.362610
80.775391	345.218475
79.421875	318.469849
78.066406	286.394135
76.710938	313.021301
75.355469	307.631165
74.000000	309.354492
72.644531	303.966888
71.289062	293.249359
69.931641	309.189911
68.576172	289.592041
67.218750	307.303925
65.861328	307.249390
64.505859	298.316406
63.148438	323.118774
61.789062	287.560181
60.431641	296.382904
59.074219	303.428040
57.714844	262.569489
56.357422	246.558655
54.998047	255.382339
53.638672	196.822281
52.279297	166.648743
50.919922	131.168274
49.560547	104.561546
