#Wave		#Intensity
1198.312500	2286.464600
1197.150391	2161.861572
1195.990234	2263.235596
1194.830078	2111.302002
1193.667969	2169.061035
1192.507812	2224.725342
1191.345703	2257.545898
1190.183594	2217.744385
1189.021484	2206.995850
1187.859375	2190.029053
1186.697266	2202.097656
1185.535156	2164.405518
1184.373047	2093.560791
1183.208984	2153.306396
1182.046875	2188.166016
1180.882812	2154.645264
1179.720703	2212.278320
1178.556641	2102.135010
1177.392578	2199.100830
1176.228516	2165.600586
1175.064453	2101.061523
1173.900391	2108.982422
1172.734375	2199.672852
1171.570312	2126.885010
1170.406250	2157.551758
1169.240234	2144.774902
1168.074219	2136.137939
1166.908203	2104.760986
1165.744141	2141.612061
1164.578125	2093.709961
1163.410156	2097.486328
1162.244141	2086.798340
1161.078125	2100.903564
1159.912109	2048.909668
1158.744141	2075.406738
1157.576172	2159.707275
1156.410156	2082.957275
1155.242188	2115.626709
1154.074219	2185.431396
1152.906250	2149.982422
1151.738281	2079.475098
1150.570312	2151.312500
1149.400391	2142.696777
1148.232422	2144.393555
1147.062500	2036.826660
1145.894531	2059.152832
1144.724609	2095.897461
1143.554688	2093.479736
1142.384766	2128.145752
1141.214844	2090.706299
1140.044922	2106.825684
1138.875000	2003.511108
1137.703125	2034.050903
1136.533203	2021.353638
1135.361328	2029.241333
1134.191406	2043.299194
1133.019531	2020.319946
1131.847656	2085.799561
1130.675781	2029.914307
1129.503906	2095.369629
1128.332031	2103.236084
1127.158203	2217.990967
1125.986328	2158.010498
1124.814453	2046.678101
1123.640625	2124.401855
1122.466797	2019.275391
1121.294922	2043.577148
1120.121094	2119.207764
1118.947266	2102.421143
1117.773438	2046.636963
1116.597656	2116.071045
1115.423828	2105.449463
1114.250000	2144.073486
1113.074219	2028.829468
1111.900391	2081.810547
1110.724609	2060.948242
1109.548828	2130.308350
1108.373047	2064.344971
1107.197266	2047.595459
1106.021484	2047.245972
1104.845703	2085.826660
1103.669922	2073.178955
1102.492188	2052.342529
1101.316406	2076.567139
1100.138672	2063.927246
1098.960938	2077.905273
1097.783203	2067.316406
1096.605469	2095.614502
1095.427734	2068.656738
1094.250000	2058.074463
1093.072266	2096.586670
1091.894531	2065.552246
1090.714844	1989.543579
1089.537109	2075.068848
1088.357422	2097.198975
1087.177734	2006.917847
1085.998047	2041.312134
1084.818359	2026.662354
1083.638672	1969.121826
1082.458984	2068.858643
1081.279297	2039.917725
1080.097656	2029.361206
1078.917969	2022.890747
1077.736328	2053.158936
1076.556641	2003.834595
1075.375000	2027.974731
1074.193359	2041.907349
1073.011719	1990.570435
1071.830078	2028.974609
1070.648438	1951.152588
1069.464844	2036.435059
1068.283203	1958.638306
1067.099609	2001.096924
1065.917969	1988.530273
1064.734375	1973.930908
1063.550781	1900.271118
1062.367188	1901.982666
1061.183594	1983.098999
1060.000000	1909.475220
1058.816406	1992.597778
1057.630859	1973.942139
1056.447266	1902.392090
1055.261719	2018.021729
1054.078125	1899.707642
1052.892578	1944.122070
1051.707031	1970.221924
1050.521484	1935.325562
1049.335938	1975.645752
1048.150391	1887.922852
1046.964844	1946.524048
1045.777344	1921.812866
1044.591797	1958.045166
1043.404297	1957.710327
1042.216797	1878.187012
1041.031250	1900.197021
1039.843750	1875.514648
1038.656250	1836.634644
1037.468750	1927.629150
1036.279297	1872.523438
1035.091797	1973.622559
1033.904297	1890.135132
1032.714844	1924.282471
1031.525391	1885.433594
1030.337891	1903.353882
1029.148438	1941.534668
1027.958984	1965.518066
1026.769531	1888.195190
1025.580078	1932.435425
1024.388672	1911.852051
1023.199219	1832.552856
1022.009766	1809.968872
1020.818359	1878.482788
1019.626953	1849.826782
1018.437500	1833.321899
1017.246094	1847.170288
1016.054688	1780.100220
1014.863281	1886.987671
1013.669922	1864.420898
1012.478516	1866.123535
1011.287109	1906.233032
1010.093750	1871.547729
1008.900391	1830.811890
1007.708984	1860.804688
1006.515625	1876.646484
1005.322266	1821.792480
1004.128906	1882.061768
1002.935547	1871.644287
1001.742188	1843.062012
1000.546875	1830.636230
999.353516	1840.412598
998.158203	1852.203125
996.964844	1847.851196
995.769531	1891.907715
994.574219	1855.284424
993.378906	1846.901489
992.183594	1850.616821
990.988281	1866.424316
989.791016	1914.469971
988.595703	1863.769653
987.398438	1919.857422
986.203125	1778.534668
985.005859	1860.797607
983.808594	1906.789307
982.611328	1938.672974
981.414062	1875.943359
980.216797	1909.833740
979.019531	1843.106201
977.822266	1967.520508
976.623047	2001.377563
975.425781	1958.801514
974.226562	1998.680542
973.027344	2106.899414
971.828125	2130.658691
970.628906	2214.701172
969.429688	2415.258057
968.230469	2631.818115
967.031250	2916.598877
965.830078	3552.739746
964.630859	4505.924805
963.429688	5876.372070
962.228516	7127.918457
961.029297	8037.853027
959.828125	8205.029297
958.626953	6869.454590
957.425781	5333.746094
956.222656	4009.149414
955.021484	3158.242676
953.818359	2714.620117
952.617188	2433.517822
951.414062	2216.646484
950.210938	2170.177490
949.009766	2095.675049
947.806641	1929.052124
946.603516	1976.788940
945.398438	1898.352783
944.195312	1928.058960
942.992188	1923.724365
941.787109	1857.346313
940.583984	1899.050659
939.378906	1878.716919
938.173828	1846.387695
936.968750	1786.068359
935.763672	1807.758667
934.558594	1783.455566
933.353516	1779.151245
932.146484	1758.858643
930.941406	1680.620483
929.734375	1744.268433
928.527344	1725.989746
927.322266	1779.621216
926.115234	1769.330566
924.908203	1727.097168
923.701172	1694.859619
922.494141	1780.394653
921.285156	1778.093140
920.078125	1662.061890
918.869141	1763.517700
917.662109	1725.317505
916.453125	1717.044067
915.244141	1720.736816
914.035156	1702.499023
912.826172	1664.335449
911.617188	1689.956665
910.408203	1675.718506
909.197266	1701.328979
907.988281	1728.922363
906.777344	1680.829102
905.566406	1680.540161
904.357422	1696.177856
903.146484	1622.238525
901.935547	1705.545288
900.724609	1669.435791
899.511719	1742.758423
898.300781	1684.774658
897.089844	1656.642212
895.876953	1729.928955
894.664062	1658.060547
893.453125	1586.216797
892.240234	1703.200439
891.027344	1627.399414
889.814453	1603.278931
888.599609	1680.471680
887.386719	1598.755249
886.173828	1622.308594
884.958984	1705.414062
883.746094	1588.005249
882.531250	1679.026733
881.316406	1633.098389
880.101562	1722.096558
878.886719	1658.323730
877.671875	1574.739746
876.457031	1687.497437
875.240234	1649.537354
874.025391	1597.714233
872.808594	1609.330933
871.593750	1601.127563
870.376953	1588.964355
869.160156	1555.015381
867.943359	1616.145386
866.726562	1613.886963
865.507812	1655.186768
864.291016	1615.310913
863.074219	1543.781372
861.855469	1589.029419
860.636719	1584.798828
859.419922	1519.245850
858.201172	1556.563232
856.982422	1597.822754
855.763672	1530.324097
854.544922	1520.176392
853.324219	1591.067871
852.105469	1513.724365
850.884766	1592.495728
849.666016	1566.540405
848.445312	1512.942261
847.224609	1560.076416
846.003906	1516.369873
844.783203	1514.134521
843.562500	1582.955322
842.341797	1505.719238
841.119141	1560.705933
839.898438	1501.254883
838.675781	1455.630981
837.455078	1557.927246
836.232422	1569.489014
835.009766	1537.676514
833.787109	1492.077515
832.564453	1539.117188
831.339844	1544.762939
830.117188	1595.717285
828.894531	1571.806030
827.669922	1504.577393
826.445312	1533.853027
825.222656	1545.400513
823.998047	1533.324219
822.773438	1475.988281
821.548828	1487.539551
820.322266	1495.152344
819.097656	1494.894531
817.873047	1478.903687
816.646484	1419.660034
815.419922	1572.759155
814.195312	1487.966675
812.968750	1491.640503
811.742188	1497.278076
810.515625	1498.984375
809.289062	1524.261108
808.060547	1510.250732
806.833984	1511.953735
805.605469	1525.435547
804.378906	1421.138672
803.150391	1501.358521
801.921875	1540.343872
800.693359	1494.954712
799.464844	1665.351074
798.236328	1665.063721
797.007812	1676.541504
795.777344	1754.673340
794.548828	1885.703247
793.318359	1679.593262
792.089844	1718.493652
790.859375	1700.564331
789.628906	1668.929443
788.398438	1656.890259
787.167969	1697.725586
785.935547	1713.095093
784.705078	1802.843628
783.474609	1806.446655
782.242188	2123.137695
781.009766	2355.591064
779.779297	2949.848877
778.546875	4062.187012
777.314453	5817.486328
776.082031	8006.215820
774.847656	9771.956055
773.615234	9584.595703
772.380859	7765.620605
771.148438	5169.673340
769.914062	3574.780029
768.679688	2662.067383
767.447266	2339.402588
766.212891	2050.040527
764.976562	1957.938354
763.742188	1813.170898
762.507812	1748.461182
761.273438	1726.697144
760.037109	1663.975342
758.800781	1648.084595
757.566406	1591.248047
756.330078	1553.928223
755.093750	1520.520142
753.857422	1498.817749
752.619141	1465.430542
751.382812	1576.234619
750.146484	1474.664185
748.908203	1503.624634
747.671875	1448.838501
746.433594	1487.528564
745.195312	1489.218018
743.957031	1432.516235
742.718750	1494.541138
741.480469	1383.378784
740.240234	1355.904785
739.001953	1571.566040
737.763672	1435.167236
736.523438	1442.696411
735.283203	1471.606812
734.042969	1430.535400
732.802734	1393.364624
731.562500	1447.527344
730.322266	1441.448975
729.082031	1386.814697
727.839844	1402.110596
726.599609	1353.326782
725.357422	1401.625366
724.117188	1366.445312
722.875000	1416.665405
721.632812	1437.763550
720.390625	1398.715332
719.148438	1446.964111
717.904297	1378.838257
716.662109	1384.416504
715.417969	1378.360962
714.175781	1383.937256
712.931641	1387.573608
711.687500	1336.955322
710.443359	1354.159302
709.199219	1382.979126
707.955078	1303.338623
706.710938	1361.201172
705.466797	1345.477905
704.220703	1354.922974
702.974609	1335.335571
701.730469	1352.518677
700.484375	1325.200073
699.238281	1311.430664
697.992188	1394.362427
696.746094	1307.109253
695.500000	1303.016235
694.251953	1300.857666
693.005859	1321.890747
691.757812	1373.832520
690.509766	1342.683838
689.263672	1344.382690
688.015625	1317.112305
686.767578	1351.640503
685.519531	1339.822754
684.269531	1324.148682
683.021484	1304.619995
681.771484	1373.858643
680.523438	1338.894165
679.273438	1319.373047
678.023438	1253.572876
676.773438	1311.202759
675.523438	1322.542847
674.273438	1272.196655
673.023438	1304.739136
671.773438	1304.512939
670.521484	1333.185303
669.271484	1209.675049
668.019531	1269.168213
666.767578	1319.012817
665.515625	1320.709351
664.263672	1324.330078
663.011719	1268.288086
661.759766	1295.007324
660.505859	1204.359497
659.253906	1277.245972
658.000000	1350.107178
656.748047	1296.031860
655.494141	1370.786865
654.240234	1257.137573
652.986328	1274.216553
651.732422	1268.230713
650.476562	1243.034668
649.222656	1273.553345
647.968750	1267.570679
646.712891	1250.068604
645.457031	1257.531250
644.201172	1293.784668
642.947266	1253.256226
641.691406	1247.282104
640.433594	1233.635620
639.177734	1244.930786
637.921875	1300.333740
636.664062	1280.932373
635.408203	1378.488647
634.150391	1255.567871
632.892578	1286.014893
631.634766	1276.210449
630.376953	1316.222778
629.119141	1254.696045
627.861328	1333.002686
626.601562	1261.919800
625.343750	1328.710571
624.083984	1248.081909
622.826172	1249.778931
621.566406	1261.043335
620.306641	1283.783081
619.046875	1266.343994
617.787109	1327.326294
616.525391	1277.377441
615.265625	1290.538818
614.003906	1278.845093
612.744141	1292.001587
611.482422	1339.549927
610.220703	1314.479614
608.958984	1444.148071
607.697266	1417.158203
606.435547	1267.964355
605.173828	1273.471680
603.910156	1236.980835
602.648438	1179.508179
601.384766	1215.559937
600.123047	1255.415039
598.859375	1209.414551
597.595703	1230.184204
596.332031	1231.877197
595.066406	1283.141235
593.802734	1229.542603
592.539062	1200.739746
591.273438	1219.586914
590.009766	1213.659058
588.744141	1228.687500
587.478516	1213.236938
586.212891	1195.887329
584.947266	1266.125488
583.681641	1220.218384
582.414062	1140.068115
581.148438	1223.599731
579.880859	1210.068481
578.615234	1183.225952
577.347656	1228.667114
576.080078	1199.928833
574.812500	1133.174561
573.544922	1210.917114
572.277344	1212.606934
571.009766	1183.891357
569.740234	1200.785034
568.472656	1253.766113
567.203125	1192.769897
565.933594	1243.834839
564.664062	1249.314209
563.394531	1182.655396
562.125000	1159.673584
560.855469	1168.960083
559.585938	1174.448486
558.314453	1170.450073
557.042969	1204.386353
555.773438	1189.005859
554.501953	1211.550903
553.230469	1141.199707
551.958984	1171.326538
550.687500	1161.647461
549.416016	1172.813354
548.142578	1212.390625
546.871094	1204.603271
545.597656	1174.094238
544.326172	1209.863770
543.052734	1154.754761
541.779297	1167.802490
540.505859	1148.675293
539.232422	1157.935425
537.957031	1163.408813
536.683594	1155.640503
535.408203	1212.170898
534.134766	1117.423096
532.859375	1181.501953
531.583984	1171.845703
530.308594	1114.949097
529.033203	1092.081787
527.757812	1150.453125
526.482422	1157.807617
525.205078	1091.510742
523.929688	1091.320435
522.652344	1142.099976
521.375000	1157.000366
520.099609	1126.604858
518.822266	1158.483643
517.542969	1084.709961
516.265625	1141.104492
514.988281	1123.933350
513.708984	1112.424561
512.431641	1119.771118
511.152344	1104.497314
509.873047	1125.033936
508.595703	1111.648560
507.316406	1154.782593
506.035156	1122.561768
504.755859	1103.534180
503.476562	1092.044678
502.195312	1084.324097
500.916016	1112.367554
499.634766	1132.873779
498.353516	1085.638062
497.072266	1051.587158
495.791016	1122.876465
494.509766	1090.711304
493.228516	1099.921997
491.947266	1131.687988
490.664062	1114.574463
489.380859	1069.278564
488.099609	1132.974365
486.816406	1063.269531
485.533203	1059.327393
484.250000	1128.625122
482.966797	1083.366089
481.681641	1120.722046
480.398438	1086.741577
479.113281	1182.258423
477.830078	1099.495972
476.544922	1129.319092
475.259766	1074.728882
473.974609	1110.171631
472.689453	1049.979004
471.404297	1079.789673
470.117188	1122.710205
468.832031	1133.757935
467.544922	1090.465820
466.259766	1086.528564
464.972656	1121.925781
463.685547	1074.912964
462.398438	1091.576172
461.111328	1068.921265
459.824219	1111.783203
458.535156	1081.647217
457.248047	1131.976074
455.958984	1103.717529
454.671875	1067.987427
453.382812	1056.580444
452.093750	1091.920532
450.804688	1074.905029
449.513672	1093.407837
448.224609	1024.072998
446.935547	1063.130737
445.644531	1090.966309
444.355469	1092.643311
443.064453	1101.789429
441.773438	1097.862549
440.482422	1114.471558
439.191406	1103.077881
437.900391	1078.625244
436.607422	1087.765625
435.316406	1018.552490
434.023438	1035.160767
432.732422	1016.331360
431.439453	1025.476074
430.146484	1096.135376
428.853516	1049.347290
427.560547	1021.210815
426.267578	1095.560059
424.972656	1024.579224
423.679688	1048.613037
422.384766	1061.464966
421.089844	1024.041382
419.794922	1055.508789
418.501953	980.874329
417.205078	1088.635742
415.910156	1034.488159
414.615234	1021.285156
413.320312	995.067200
412.023438	1020.927551
410.726562	1108.135376
409.431641	1011.275269
408.134766	992.511841
406.837891	1068.528809
405.541016	1096.211426
404.242188	1083.015869
402.945312	1036.392822
401.648438	1060.352417
400.349609	1013.749573
399.050781	1008.002930
397.751953	981.841858
396.455078	1048.475342
395.154297	1044.580933
393.855469	1038.832764
392.556641	997.846619
391.257812	1038.468750
389.957031	1023.454102
388.656250	1052.934937
387.357422	1004.561096
386.056641	1017.356812
384.755859	1035.706421
383.455078	981.803528
382.154297	979.779297
380.851562	1048.124512
379.550781	1016.465576
378.248047	973.710693
376.947266	1016.109192
375.644531	986.322876
374.341797	1026.854004
373.039062	1015.574829
371.736328	1039.440796
370.431641	978.234436
369.128906	1005.796204
367.824219	1024.105469
366.521484	996.202271
365.216797	1012.658813
363.912109	969.986511
362.607422	1043.707153
361.302734	940.095154
359.998047	1024.874756
358.693359	1024.695068
357.386719	950.676331
356.082031	965.274719
354.775391	1031.537109
353.468750	988.921021
352.162109	968.456055
350.855469	940.620789
349.548828	953.363892
348.242188	995.601868
346.935547	988.053589
345.626953	991.566284
344.318359	1013.505066
343.011719	961.739624
341.703125	989.202148
340.394531	977.977844
339.085938	952.025940
337.777344	994.204590
336.466797	951.691711
335.158203	973.610291
333.847656	995.521118
332.539062	964.069214
331.228516	965.739441
329.917969	926.947021
328.607422	952.528259
327.296875	996.485779
325.984375	943.002563
324.673828	979.594727
323.363281	979.422607
322.050781	975.576111
320.738281	977.241638
319.425781	988.089478
318.113281	954.862976
316.800781	958.367065
315.488281	934.335510
314.175781	1003.912964
312.861328	937.677124
311.548828	959.528259
310.234375	926.341492
308.919922	937.182800
307.605469	935.184326
306.291016	911.186096
304.976562	914.692017
303.662109	943.854919
302.347656	969.342651
301.031250	961.843872
299.714844	921.376038
298.400391	930.371216
297.083984	913.727539
295.767578	920.890015
294.451172	968.320374
293.134766	937.037537
291.816406	955.171021
290.500000	931.219421
289.181641	905.447021
287.865234	925.405273
286.546875	932.556641
285.228516	853.779053
283.910156	935.884338
282.591797	891.857788
281.271484	944.691345
279.953125	982.890686
278.632812	940.705688
277.314453	909.493164
275.994141	860.031921
274.673828	892.742249
273.353516	940.043640
272.033203	916.153076
270.712891	895.920288
269.390625	879.343323
268.070312	877.364502
266.748047	964.748657
265.427734	926.287415
264.105469	958.939758
262.783203	944.188843
261.460938	887.527039
260.138672	869.149536
258.814453	892.679871
257.492188	932.595093
256.167969	890.544312
254.845703	934.087463
253.521484	953.948547
252.197266	919.196899
250.873047	891.736877
249.548828	867.925659
248.222656	902.338135
246.898438	869.438782
245.574219	878.378540
244.248047	881.860291
242.921875	916.245911
241.595703	867.008545
240.269531	859.586487
238.943359	883.055847
237.617188	904.700256
236.291016	880.928284
234.962891	884.405029
233.636719	847.934998
232.308594	880.462524
230.980469	871.231995
229.652344	840.227661
228.324219	856.409363
226.996094	843.559631
225.667969	881.500427
224.337891	892.225769
223.009766	870.310669
221.679688	910.039429
220.349609	888.128845
219.019531	862.601562
217.689453	847.954468
216.359375	889.470520
215.029297	901.992249
213.699219	869.236755
212.367188	887.189331
211.035156	858.068481
209.705078	923.075317
208.373047	969.962891
207.041016	1192.337280
205.708984	1537.644653
204.375000	1823.143921
203.042969	1764.954834
201.710938	1285.513672
200.376953	967.128662
199.042969	918.158203
197.710938	905.346558
196.376953	935.901672
195.042969	930.317139
193.707031	888.612122
192.373047	827.057922
191.039062	817.884460
189.703125	870.089844
188.367188	801.352051
187.033203	873.391663
185.697266	829.936401
184.361328	860.455994
183.025391	863.911194
181.687500	834.906494
180.351562	796.897400
179.013672	872.466553
177.677734	868.707825
176.339844	836.118774
175.001953	825.161072
173.664062	796.193787
172.326172	828.471558
170.988281	873.342834
169.648438	846.182739
168.310547	856.833618
166.970703	809.888611
165.632812	807.946045
164.292969	831.191772
162.953125	805.861694
161.613281	816.510132
160.271484	852.329041
158.931641	783.860291
157.591797	837.647522
156.250000	799.758057
154.908203	805.007324
153.568359	779.712952
152.226562	855.017822
150.884766	792.008789
149.541016	833.168030
148.199219	820.453552
146.857422	779.023804
145.513672	800.422058
144.169922	793.103088
142.828125	771.434387
141.484375	846.633972
140.140625	760.401062
138.794922	769.231995
137.451172	754.753784
136.107422	822.733215
134.761719	840.508972
133.417969	802.732178
132.072266	795.424133
130.726562	831.106934
129.380859	800.515198
128.035156	755.609924
126.689453	744.734802
125.341797	803.670044
123.996094	796.369446
122.648438	810.542664
121.300781	760.308289
119.953125	787.003357
118.607422	810.112244
117.257812	820.696899
115.910156	813.400818
114.562500	750.698547
113.212891	811.325684
111.865234	793.314575
110.515625	771.736938
109.166016	791.247498
107.816406	800.036316
106.466797	830.247742
105.117188	812.249084
103.767578	765.699158
102.416016	801.254150
101.066406	772.564758
99.714844	817.025330
98.363281	782.992493
97.011719	797.119873
95.660156	780.932068
94.308594	789.706848
92.957031	753.920532
91.603516	796.554993
90.251953	764.343445
88.898438	773.114807
87.544922	753.386169
86.191406	758.594849
84.837891	792.288452
83.484375	797.488281
82.130859	793.787292
80.775391	806.102905
79.421875	766.818420
78.066406	788.028625
76.710938	755.875305
75.355469	768.188782
74.000000	750.273560
72.644531	735.919800
71.289062	781.998291
69.931641	739.212708
68.576172	762.177856
67.218750	701.647644
65.861328	733.491333
64.505859	708.501526
63.148438	731.455688
61.789062	752.626709
60.431641	748.943665
59.074219	745.261902
57.714844	679.487244
56.357422	629.700195
54.998047	571.063293
53.638672	453.932465
52.279297	370.527527
50.919922	288.924713
49.560547	205.578644
