10.009866440 2497.0
10.031599320 2610.0
10.053332200 2563.0
10.075065080 2517.0
10.096797960 2616.0
10.118530840 2552.0
10.140263720 2580.0
10.161996600 2638.0
10.183729480 2613.0
10.205462360 2613.0
10.227195240 2738.0
10.248928120 2803.0
10.270661000 2716.0
10.292393880 2600.0
10.314126760 2771.0
10.335859640 2790.0
10.357592520 2707.0
10.379325400 2802.0
10.401058280 2739.0
10.422791160 2952.0
10.444524040 2885.0
10.466256920 2952.0
10.487989800 2994.0
10.509722680 3036.0
10.531455560 3023.0
10.553188440 3047.0
10.574921320 3102.0
10.596654200 3060.0
10.618387080 3051.0
10.640119960 3101.0
10.661852840 3012.0
10.683585720 3205.0
10.705318600 3166.0
10.727051480 3310.0
10.748784360 3211.0
10.770517240 3154.0
10.792250120 3271.0
10.813983000 3308.0
10.835715880 3278.0
10.857448760 3341.0
10.879181640 3384.0
10.900914520 3229.0
10.922647400 3430.0
10.944380280 3485.0
10.966113160 3403.0
10.987846040 3456.0
11.009578920 3480.0
11.031311800 3475.0
11.053044680 3623.0
11.074777560 3465.0
11.096510440 3560.0
11.118243320 3587.0
11.139976200 3485.0
11.161709080 3551.0
11.183441960 3596.0
11.205174840 3694.0
11.226907720 3673.0
11.248640600 3658.0
11.270373480 3778.0
11.292106360 3853.0
11.313839240 3757.0
11.335572120 3799.0
11.357305000 3744.0
11.379037880 3815.0
11.400770760 3859.0
11.422503640 3814.0
11.444236520 3807.0
11.465969400 3824.0
11.487702280 3833.0
11.509435160 3829.0
11.531168040 3843.0
11.552900920 3956.0
11.574633800 3883.0
11.596366680 3961.0
11.618099560 3987.0
11.639832440 4051.0
11.661565320 4143.0
11.683298200 4019.0
11.705031080 4096.0
11.726763960 4143.0
11.748496840 4106.0
11.770229720 4236.0
11.791962600 4210.0
11.813695480 4239.0
11.835428360 4425.0
11.857161240 4419.0
11.878894120 4361.0
11.900627000 4344.0
11.922359880 4300.0
11.944092760 4281.0
11.965825640 4406.0
11.987558520 4355.0
12.009291400 4386.0
12.031024280 4593.0
12.052757160 4534.0
12.074490040 4535.0
12.096222920 4556.0
12.117955800 4530.0
12.139688680 4462.0
12.161421560 4616.0
12.183154440 4495.0
12.204887320 4627.0
12.226620200 4642.0
12.248353080 4724.0
12.270085960 4692.0
12.291818840 4765.0
12.313551720 4863.0
12.335284600 4690.0
12.357017480 4950.0
12.378750360 5038.0
12.400483240 4828.0
12.422216120 4896.0
12.443949000 4896.0
12.465681880 4890.0
12.487414760 5026.0
12.509147640 4854.0
12.530880520 4810.0
12.552613400 4912.0
12.574346280 4892.0
12.596079160 5051.0
12.617812040 5048.0
12.639544920 5009.0
12.661277800 4961.0
12.683010680 5106.0
12.704743560 5072.0
12.726476440 5140.0
12.748209320 5233.0
12.769942200 5255.0
12.791675080 5205.0
12.813407960 5299.0
12.835140840 5292.0
12.856873720 5209.0
12.878606600 5274.0
12.900339480 5398.0
12.922072360 5239.0
12.943805240 5391.0
12.965538120 5321.0
12.987271000 5403.0
13.009003880 5362.0
13.030736760 5447.0
13.052469640 5419.0
13.074202520 5423.0
13.095935400 5437.0
13.117668280 5435.0
13.139401160 5493.0
13.161134040 5490.0
13.182866920 5502.0
13.204599800 5604.0
13.226332680 5576.0
13.248065560 5679.0
13.269798440 5599.0
13.291531320 5781.0
13.313264200 5790.0
13.334997080 5719.0
13.356729960 5653.0
13.378462840 5774.0
13.400195720 5634.0
13.421928600 5840.0
13.443661480 5812.0
13.465394360 5820.0
13.487127240 6110.0
13.508860120 5615.0
13.530593000 5890.0
13.552325880 5831.0
13.574058760 5928.0
13.595791640 5951.0
13.617524520 5865.0
13.639257400 5826.0
13.660990280 6126.0
13.682723160 5898.0
13.704456040 5978.0
13.726188920 5834.0
13.747921800 5907.0
13.769654680 5971.0
13.791387560 5993.0
13.813120440 6047.0
13.834853320 6007.0
13.856586200 5969.0
13.878319080 6133.0
13.900051960 6143.0
13.921784840 6163.0
13.943517720 6126.0
13.965250600 6180.0
13.986983480 6194.0
14.008716360 6174.0
14.030449240 6150.0
14.052182120 6281.0
14.073915000 6226.0
14.095647880 6114.0
14.117380760 6366.0
14.139113640 6379.0
14.160846520 6196.0
14.182579400 6229.0
14.204312280 6224.0
14.226045160 6242.0
14.247778040 6475.0
14.269510920 6456.0
14.291243800 6379.0
14.312976680 6594.0
14.334709560 6583.0
14.356442440 6587.0
14.378175320 6549.0
14.399908200 6566.0
14.421641080 6487.0
14.443373960 6438.0
14.465106840 6473.0
14.486839720 6301.0
14.508572600 6511.0
14.530305480 6602.0
14.552038360 6628.0
14.573771240 6736.0
14.595504120 6434.0
14.617237000 6560.0
14.638969880 6395.0
14.660702760 6611.0
14.682435640 6717.0
14.704168520 6558.0
14.725901400 6790.0
14.747634280 6689.0
14.769367160 6724.0
14.791100040 6743.0
14.812832920 6716.0
14.834565800 6606.0
14.856298680 6693.0
14.878031560 6636.0
14.899764440 6766.0
14.921497320 6829.0
14.943230200 6896.0
14.964963080 6771.0
14.986695960 6934.0
15.008428840 6760.0
15.030161720 6881.0
15.051894600 6883.0
15.073627480 6984.0
15.095360360 6940.0
15.117093240 7002.0
15.138826120 6890.0
15.160559000 6986.0
15.182291880 6989.0
15.204024760 6889.0
15.225757640 6991.0
15.247490520 7099.0
15.269223400 7040.0
15.290956280 6903.0
15.312689160 6758.0
15.334422040 7053.0
15.356154920 7101.0
15.377887800 7081.0
15.399620680 7104.0
15.421353560 6873.0
15.443086440 7021.0
15.464819320 6991.0
15.486552200 7168.0
15.508285080 7128.0
15.530017960 7445.0
15.551750840 7210.0
15.573483720 7184.0
15.595216600 7045.0
15.616949480 7103.0
15.638682360 6924.0
15.660415240 7096.0
15.682148120 7013.0
15.703881000 7170.0
15.725613880 7218.0
15.747346760 7098.0
15.769079640 7155.0
15.790812520 7325.0
15.812545400 7194.0
15.834278280 7396.0
15.856011160 7270.0
15.877744040 7193.0
15.899476920 7156.0
15.921209800 7212.0
15.942942680 7249.0
15.964675560 7170.0
15.986408440 7205.0
16.008141320 7224.0
16.029874200 7181.0
16.051607080 7134.0
16.073339960 7205.0
16.095072840 7522.0
16.116805720 7056.0
16.138538600 7220.0
16.160271480 7198.0
16.182004360 7326.0
16.203737240 7536.0
16.225470120 7421.0
16.247203000 7244.0
16.268935880 7278.0
16.290668760 7247.0
16.312401640 7338.0
16.334134520 7347.0
16.355867400 7258.0
16.377600280 7111.0
16.399333160 7178.0
16.421066040 7360.0
16.442798920 7546.0
16.464531800 7566.0
16.486264680 7367.0
16.507997560 7385.0
16.529730440 7159.0
16.551463320 7473.0
16.573196200 7323.0
16.594929080 7236.0
16.616661960 7180.0
16.638394840 7186.0
16.660127720 7295.0
16.681860600 7387.0
16.703593480 7347.0
16.725326360 7197.0
16.747059240 7412.0
16.768792120 7265.0
16.790525000 7398.0
16.812257880 7524.0
16.833990760 7415.0
16.855723640 7242.0
16.877456520 7286.0
16.899189400 7233.0
16.920922280 7257.0
16.942655160 7168.0
16.964388040 7165.0
16.986120920 6927.0
17.007853800 7281.0
17.029586680 7324.0
17.051319560 7100.0
17.073052440 7254.0
17.094785320 7471.0
17.116518200 7349.0
17.138251080 7385.0
17.159983960 7371.0
17.181716840 7403.0
17.203449720 7277.0
17.225182600 7394.0
17.246915480 7260.0
17.268648360 7388.0
17.290381240 7264.0
17.312114120 7416.0
17.333847000 7336.0
17.355579880 7325.0
17.377312760 7316.0
17.399045640 7229.0
17.420778520 7169.0
17.442511400 7239.0
17.464244280 7169.0
17.485977160 7113.0
17.507710040 7235.0
17.529442920 7118.0
17.551175800 7114.0
17.572908680 7108.0
17.594641560 7180.0
17.616374440 7124.0
17.638107320 7352.0
17.659840200 8263.0
17.681573080 9424.0
17.703305960 8155.0
17.725038840 8263.0
17.746771720 7466.0
17.768504600 7160.0
17.790237480 7226.0
17.811970360 7243.0
17.833703240 7238.0
17.855436120 7242.0
17.877169000 7302.0
17.898901880 7271.0
17.920634760 7221.0
17.942367640 7047.0
17.964100520 7137.0
17.985833400 7229.0
18.007566280 7238.0
18.029299160 7191.0
18.051032040 7202.0
18.072764920 7094.0
18.094497800 7239.0
18.116230680 7030.0
18.137963560 7145.0
18.159696440 7079.0
18.181429320 7197.0
18.203162200 7043.0
18.224895080 7056.0
18.246627960 7005.0
18.268360840 6873.0
18.290093720 6969.0
18.311826600 7135.0
18.333559480 6880.0
18.355292360 7060.0
18.377025240 6891.0
18.398758120 6929.0
18.420491000 6849.0
18.442223880 6840.0
18.463956760 7047.0
18.485689640 6984.0
18.507422520 7088.0
18.529155400 6869.0
18.550888280 6834.0
18.572621160 6861.0
18.594354040 6807.0
18.616086920 6811.0
18.637819800 6701.0
18.659552680 6775.0
18.681285560 6839.0
18.703018440 6920.0
18.724751320 6788.0
18.746484200 6675.0
18.768217080 6895.0
18.789949960 6787.0
18.811682840 6862.0
18.833415720 6826.0
18.855148600 6782.0
18.876881480 6586.0
18.898614360 6620.0
18.920347240 6684.0
18.942080120 6823.0
18.963813000 6757.0
18.985545880 6776.0
19.007278760 6536.0
19.029011640 6586.0
19.050744520 6829.0
19.072477400 6655.0
19.094210280 6618.0
19.115943160 6601.0
19.137676040 6609.0
19.159408920 6728.0
19.181141800 6528.0
19.202874680 6551.0
19.224607560 6486.0
19.246340440 6529.0
19.268073320 6556.0
19.289806200 6525.0
19.311539080 6658.0
19.333271960 6623.0
19.355004840 6449.0
19.376737720 6482.0
19.398470600 6405.0
19.420203480 6531.0
19.441936360 6540.0
19.463669240 6508.0
19.485402120 6449.0
19.507135000 6453.0
19.528867880 6435.0
19.550600760 6338.0
19.572333640 6415.0
19.594066520 6309.0
19.615799400 6314.0
19.637532280 6276.0
19.659265160 6221.0
19.680998040 6139.0
19.702730920 6377.0
19.724463800 6363.0
19.746196680 6351.0
19.767929560 6385.0
19.789662440 6223.0
19.811395320 6316.0
19.833128200 6251.0
19.854861080 6194.0
19.876593960 6174.0
19.898326840 6060.0
19.920059720 6004.0
19.941792600 6109.0
19.963525480 6119.0
19.985258360 6133.0
20.006991240 6158.0
20.028724120 6146.0
20.050457000 6042.0
20.072189880 6101.0
20.093922760 6082.0
20.115655640 6201.0
20.137388520 6053.0
20.159121400 5968.0
20.180854280 5871.0
20.202587160 5891.0
20.224320040 6015.0
20.246052920 6056.0
20.267785800 5982.0
20.289518680 6005.0
20.311251560 5928.0
20.332984440 6104.0
20.354717320 5809.0
20.376450200 5850.0
20.398183080 5758.0
20.419915960 5949.0
20.441648840 5955.0
20.463381720 5754.0
20.485114600 5768.0
20.506847480 5839.0
20.528580360 5802.0
20.550313240 5710.0
20.572046120 5704.0
20.593779000 5658.0
20.615511880 5969.0
20.637244760 5778.0
20.658977640 5694.0
20.680710520 5866.0
20.702443400 5718.0
20.724176280 5709.0
20.745909160 5691.0
20.767642040 5654.0
20.789374920 5647.0
20.811107800 5651.0
20.832840680 5614.0
20.854573560 5500.0
20.876306440 5636.0
20.898039320 5645.0
20.919772200 5513.0
20.941505080 5561.0
20.963237960 5502.0
20.984970840 5398.0
21.006703720 5442.0
21.028436600 5591.0
21.050169480 5470.0
21.071902360 5431.0
21.093635240 5340.0
21.115368120 5466.0
21.137101000 5462.0
21.158833880 5254.0
21.180566760 5479.0
21.202299640 5251.0
21.224032520 5261.0
21.245765400 5491.0
21.267498280 5299.0
21.289231160 5263.0
21.310964040 5213.0
21.332696920 5201.0
21.354429800 5234.0
21.376162680 5234.0
21.397895560 5305.0
21.419628440 5306.0
21.441361320 5259.0
21.463094200 5149.0
21.484827080 5107.0
21.506559960 5163.0
21.528292840 5213.0
21.550025720 5079.0
21.571758600 5103.0
21.593491480 5219.0
21.615224360 5118.0
21.636957240 4955.0
21.658690120 5002.0
21.680423000 5008.0
21.702155880 4979.0
21.723888760 4902.0
21.745621640 4950.0
21.767354520 4980.0
21.789087400 4972.0
21.810820280 5047.0
21.832553160 5016.0
21.854286040 4972.0
21.876018920 4952.0
21.897751800 5043.0
21.919484680 4827.0
21.941217560 4804.0
21.962950440 4958.0
21.984683320 4833.0
22.006416200 4904.0
22.028149080 4876.0
22.049881960 4749.0
22.071614840 4847.0
22.093347720 4714.0
22.115080600 4848.0
22.136813480 4894.0
22.158546360 4818.0
22.180279240 4669.0
22.202012120 4733.0
22.223745000 4647.0
22.245477880 4762.0
22.267210760 4739.0
22.288943640 4681.0
22.310676520 4693.0
22.332409400 4604.0
22.354142280 4594.0
22.375875160 4693.0
22.397608040 4668.0
22.419340920 4610.0
22.441073800 4536.0
22.462806680 4695.0
22.484539560 4447.0
22.506272440 4563.0
22.528005320 4533.0
22.549738200 4610.0
22.571471080 4612.0
22.593203960 4539.0
22.614936840 4445.0
22.636669720 4473.0
22.658402600 4525.0
22.680135480 4354.0
22.701868360 4427.0
22.723601240 4421.0
22.745334120 4533.0
22.767067000 4525.0
22.788799880 4398.0
22.810532760 4305.0
22.832265640 4237.0
22.853998520 4360.0
22.875731400 4350.0
22.897464280 4270.0
22.919197160 4399.0
22.940930040 4288.0
22.962662920 4341.0
22.984395800 4326.0
23.006128680 4275.0
23.027861560 4225.0
23.049594440 4131.0
23.071327320 4097.0
23.093060200 4146.0
23.114793080 4212.0
23.136525960 4298.0
23.158258840 4277.0
23.179991720 4291.0
23.201724600 4011.0
23.223457480 4155.0
23.245190360 4174.0
23.266923240 4133.0
23.288656120 4072.0
23.310389000 4085.0
23.332121880 4062.0
23.353854760 4046.0
23.375587640 4173.0
23.397320520 4122.0
23.419053400 4067.0
23.440786280 4167.0
23.462519160 3981.0
23.484252040 4044.0
23.505984920 4049.0
23.527717800 4141.0
23.549450680 4007.0
23.571183560 3946.0
23.592916440 3973.0
23.614649320 3865.0
23.636382200 3948.0
23.658115080 3980.0
23.679847960 3885.0
23.701580840 3869.0
23.723313720 3840.0
23.745046600 3799.0
23.766779480 3863.0
23.788512360 3838.0
23.810245240 3845.0
23.831978120 4053.0
23.853711000 3766.0
23.875443880 3804.0
23.897176760 3920.0
23.918909640 3713.0
23.940642520 3785.0
23.962375400 3849.0
23.984108280 3825.0
24.005841160 3760.0
24.027574040 3698.0
24.049306920 3654.0
24.071039800 3765.0
24.092772680 3773.0
24.114505560 3658.0
24.136238440 3644.0
24.157971320 3669.0
24.179704200 3711.0
24.201437080 3511.0
24.223169960 3727.0
24.244902840 3711.0
24.266635720 3591.0
24.288368600 3618.0
24.310101480 3567.0
24.331834360 3505.0
24.353567240 3620.0
24.375300120 3535.0
24.397033000 3543.0
24.418765880 3571.0
24.440498760 3546.0
24.462231640 3451.0
24.483964520 3580.0
24.505697400 3610.0
24.527430280 3578.0
24.549163160 3555.0
24.570896040 3643.0
24.592628920 3544.0
24.614361800 3415.0
24.636094680 3401.0
24.657827560 3491.0
24.679560440 3414.0
24.701293320 3456.0
24.723026200 3393.0
24.744759080 3326.0
24.766491960 3281.0
24.788224840 3409.0
24.809957720 3402.0
24.831690600 3282.0
24.853423480 3422.0
24.875156360 3340.0
24.896889240 3376.0
24.918622120 3292.0
24.940355000 3361.0
24.962087880 3276.0
24.983820760 3417.0
25.005553640 3373.0
25.027286520 3229.0
25.049019400 3298.0
25.070752280 3342.0
25.092485160 3196.0
25.114218040 3176.0
25.135950920 3129.0
25.157683800 3215.0
25.179416680 3217.0
25.201149560 3280.0
25.222882440 3217.0
25.244615320 3241.0
25.266348200 3261.0
25.288081080 3235.0
25.309813960 3210.0
25.331546840 3146.0
25.353279720 3050.0
25.375012600 3051.0
25.396745480 3223.0
25.418478360 3095.0
25.440211240 3061.0
25.461944120 3163.0
25.483677000 3156.0
25.505409880 3028.0
25.527142760 3020.0
25.548875640 3043.0
25.570608520 3031.0
25.592341400 3094.0
25.614074280 3002.0
25.635807160 3110.0
25.657540040 3059.0
25.679272920 3016.0
25.701005800 2986.0
25.722738680 2902.0
25.744471560 3028.0
25.766204440 3018.0
25.787937320 2869.0
25.809670200 3028.0
25.831403080 2870.0
25.853135960 2863.0
25.874868840 2899.0
25.896601720 2972.0
25.918334600 2867.0
25.940067480 2961.0
25.961800360 2975.0
25.983533240 2893.0
26.005266120 2804.0
26.026999000 2888.0
26.048731880 2737.0
26.070464760 2865.0
26.092197640 2870.0
26.113930520 2790.0
26.135663400 2759.0
26.157396280 2657.0
26.179129160 2695.0
26.200862040 2724.0
26.222594920 2764.0
26.244327800 2738.0
26.266060680 2772.0
26.287793560 2750.0
26.309526440 2688.0
26.331259320 2694.0
26.352992200 2526.0
26.374725080 2754.0
26.396457960 2716.0
26.418190840 2725.0
26.439923720 2625.0
26.461656600 2653.0
26.483389480 2658.0
26.505122360 2638.0
26.526855240 2610.0
26.548588120 2627.0
26.570321000 2721.0
26.592053880 2797.0
26.613786760 2721.0
26.635519640 2556.0
26.657252520 2681.0
26.678985400 2509.0
26.700718280 2546.0
26.722451160 2320.0
26.744184040 2356.0
26.765916920 2553.0
26.787649800 2815.0
26.809382680 2971.0
26.831115560 3056.0
26.852848440 2993.0
26.874581320 3068.0
26.896314200 3041.0
26.918047080 3037.0
26.939779960 3116.0
26.961512840 3112.0
26.983245720 3119.0
27.004978600 3107.0
27.026711480 3132.0
27.048444360 3005.0
27.070177240 3018.0
27.091910120 3091.0
27.113643000 3012.0
27.135375880 3176.0
27.157108760 3000.0
27.178841640 3015.0
27.200574520 3075.0
27.222307400 3175.0
27.244040280 3098.0
27.265773160 3015.0
27.287506040 3096.0
27.309238920 3113.0
27.330971800 3138.0
27.352704680 3014.0
27.374437560 3010.0
27.396170440 3081.0
27.417903320 2967.0
27.439636200 3094.0
27.461369080 2930.0
27.483101960 2993.0
27.504834840 2962.0
27.526567720 3056.0
27.548300600 3224.0
27.570033480 3193.0
27.591766360 3237.0
27.613499240 3278.0
27.635232120 3241.0
27.656965000 3141.0
27.678697880 3225.0
27.700430760 3138.0
27.722163640 3096.0
27.743896520 3178.0
27.765629400 3225.0
27.787362280 3116.0
27.809095160 3195.0
27.830828040 3247.0
27.852560920 3232.0
27.874293800 3402.0
27.896026680 3347.0
27.917759560 3133.0
27.939492440 3072.0
27.961225320 2992.0
27.982958200 2998.0
28.004691080 3059.0
28.026423960 3211.0
28.048156840 3045.0
28.069889720 3032.0
28.091622600 3075.0
28.113355480 3028.0
28.135088360 2950.0
28.156821240 2910.0
28.178554120 2975.0
28.200287000 3007.0
28.222019880 3026.0
28.243752760 2951.0
28.265485640 2972.0
28.287218520 3052.0
28.308951400 3026.0
28.330684280 2908.0
28.352417160 2921.0
28.374150040 2893.0
28.395882920 2995.0
28.417615800 2855.0
28.439348680 2855.0
28.461081560 2766.0
28.482814440 2789.0
28.504547320 2889.0
28.526280200 2838.0
28.548013080 2854.0
28.569745960 2820.0
28.591478840 2773.0
28.613211720 2719.0
28.634944600 2783.0
28.656677480 2846.0
28.678410360 2993.0
28.700143240 3051.0
28.721876120 3330.0
28.743609000 3363.0
28.765341880 2966.0
28.787074760 2746.0
28.808807640 2624.0
28.830540520 2656.0
28.852273400 2684.0
28.874006280 2715.0
28.895739160 2684.0
28.917472040 2604.0
28.939204920 2689.0
28.960937800 2588.0
28.982670680 2604.0
29.004403560 2616.0
29.026136440 2609.0
29.047869320 2675.0
29.069602200 2657.0
29.091335080 2594.0
29.113067960 2546.0
29.134800840 2664.0
29.156533720 2548.0
29.178266600 2614.0
29.199999480 2640.0
29.221732360 2548.0
29.243465240 2563.0
29.265198120 2534.0
29.286931000 2446.0
29.308663880 2525.0
29.330396760 2481.0
29.352129640 2381.0
29.373862520 2455.0
29.395595400 2520.0
29.417328280 2468.0
29.439061160 2449.0
29.460794040 2447.0
29.482526920 2388.0
29.504259800 2410.0
29.525992680 2455.0
29.547725560 2596.0
29.569458440 2491.0
29.591191320 2283.0
29.612924200 2364.0
29.634657080 2375.0
29.656389960 2373.0
29.678122840 2365.0
29.699855720 2369.0
29.721588600 2262.0
29.743321480 2343.0
29.765054360 2328.0
29.786787240 2377.0
29.808520120 2320.0
29.830253000 2263.0
29.851985880 2306.0
29.873718760 2255.0
29.895451640 2253.0
29.917184520 2384.0
29.938917400 2188.0
29.960650280 2365.0
29.982383160 2291.0
30.004116040 2334.0
30.025848920 2358.0
30.047581800 2250.0
30.069314680 2199.0
30.091047560 2249.0
30.112780440 2341.0
30.134513320 2222.0
30.156246200 2232.0
30.177979080 2153.0
30.199711960 2199.0
30.221444840 2219.0
30.243177720 2153.0
30.264910600 2211.0
30.286643480 2160.0
30.308376360 2180.0
30.330109240 2213.0
30.351842120 2181.0
30.373575000 2115.0
30.395307880 2087.0
30.417040760 2141.0
30.438773640 2128.0
30.460506520 2163.0
30.482239400 2095.0
30.503972280 2134.0
30.525705160 2138.0
30.547438040 2136.0
30.569170920 2109.0
30.590903800 2140.0
30.612636680 2137.0
30.634369560 2094.0
30.656102440 2071.0
30.677835320 2140.0
30.699568200 2160.0
30.721301080 2160.0
30.743033960 2201.0
30.764766840 2144.0
30.786499720 2218.0
30.808232600 2326.0
30.829965480 2359.0
30.851698360 2423.0
30.873431240 2353.0
30.895164120 2415.0
30.916897000 2601.0
30.938629880 2799.0
30.960362760 3153.0
30.982095640 3735.0
31.003828520 4236.0
31.025561400 3746.0
31.047294280 3501.0
31.069027160 3390.0
31.090760040 3436.0
31.112492920 3613.0
31.134225800 3970.0
31.155958680 4582.0
31.177691560 6948.0
31.199424440 13879.0
31.221157320 33059.0
31.242890200 68882.0
31.264623080 80601.0
31.286355960 37844.0
31.308088840 13484.0
31.329821720 7443.0
31.351554600 5702.0
31.373287480 4942.0
31.395020360 4333.0
31.416753240 4025.0
31.438486120 3899.0
31.460219000 3632.0
31.481951880 3556.0
31.503684760 3456.0
31.525417640 3176.0
31.547150520 3153.0
31.568883400 3044.0
31.590616280 3087.0
31.612349160 3089.0
31.634082040 2887.0
31.655814920 2893.0
31.677547800 2794.0
31.699280680 2719.0
31.721013560 2708.0
31.742746440 2746.0
31.764479320 2756.0
31.786212200 2813.0
31.807945080 2692.0
31.829677960 2914.0
31.851410840 2866.0
31.873143720 3065.0
31.894876600 3159.0
31.916609480 2931.0
31.938342360 2910.0
31.960075240 2981.0
31.981808120 2786.0
32.003541000 2808.0
32.025273880 2784.0
32.047006760 2845.0
32.068739640 2834.0
32.090472520 3281.0
32.112205400 4936.0
32.133938280 12662.0
32.155671160 21382.0
32.177404040 11592.0
32.199136920 5211.0
32.220869800 3585.0
32.242602680 3161.0
32.264335560 2987.0
32.286068440 2868.0
32.307801320 2805.0
32.329534200 2797.0
32.351267080 2760.0
32.372999960 2693.0
32.394732840 2660.0
32.416465720 2867.0
32.438198600 2921.0
32.459931480 3008.0
32.481664360 3064.0
32.503397240 2990.0
32.525130120 2739.0
32.546863000 2643.0
32.568595880 2615.0
32.590328760 2466.0
32.612061640 2514.0
32.633794520 2564.0
32.655527400 2594.0
32.677260280 2681.0
32.698993160 2626.0
32.720726040 2552.0
32.742458920 2414.0
32.764191800 2531.0
32.785924680 2425.0
32.807657560 2451.0
32.829390440 2520.0
32.851123320 2479.0
32.872856200 2552.0
32.894589080 2623.0
32.916321960 2567.0
32.938054840 2636.0
32.959787720 2550.0
32.981520600 2544.0
33.003253480 2652.0
33.024986360 2570.0
33.046719240 2590.0
33.068452120 2678.0
33.090185000 2743.0
33.111917880 2742.0
33.133650760 2895.0
33.155383640 2996.0
33.177116520 3141.0
33.198849400 3312.0
33.220582280 3149.0
33.242315160 3025.0
33.264048040 3186.0
33.285780920 3302.0
33.307513800 3393.0
33.329246680 3523.0
33.350979560 3546.0
33.372712440 3877.0
33.394445320 4703.0
33.416178200 7052.0
33.437911080 12539.0
33.459643960 23226.0
33.481376840 37013.0
33.503109720 41913.0
33.524842600 43271.0
33.546575480 43578.0
33.568308360 44562.0
33.590041240 44901.0
33.611774120 44794.0
33.633507000 44979.0
33.655239880 45217.0
33.676972760 45401.0
33.698705640 45823.0
33.720438520 45960.0
33.742171400 47147.0
33.763904280 46675.0
33.785637160 46602.0
33.807370040 46812.0
33.829102920 47218.0
33.850835800 47208.0
33.872568680 47803.0
33.894301560 47680.0
33.916034440 48124.0
33.937767320 48643.0
33.959500200 49237.0
33.981233080 49263.0
34.002965960 49840.0
34.024698840 50076.0
34.046431720 51124.0
34.068164600 52092.0
34.089897480 53534.0
34.111630360 54545.0
34.133363240 56745.0
34.155096120 58635.0
34.176829000 63134.0
34.198561880 70476.0
34.220294760 84673.0
34.242027640 100685.0
34.263760520 113144.0
34.285493400 122991.0
34.307226280 134553.0
34.328959160 146236.0
34.350692040 155353.0
34.372424920 164699.0
34.394157800 174790.0
34.415890680 186324.0
34.437623560 206785.0
34.459356440 240824.0
34.481089320 299006.0
34.502822200 388980.0
34.524555080 474174.0
34.546287960 530166.0
34.568020840 637754.0
34.589753720 1011376.0
34.611486600 2239946.0
34.633219480 5875335.0
34.654952360 13930281.0
34.676685240 24779508.0
34.698418120 14733946.0
34.720151000 5668431.0
34.741883880 7366696.0
34.763616760 12417169.0
34.785349640 8162432.0
34.807082520 2182186.0
34.828815400 832913.0
34.850548280 530446.0
34.872281160 408125.0
34.894014040 341607.0
34.915746920 302653.0
34.937479800 277453.0
34.959212680 259593.0
34.980945560 247656.0
35.002678440 233467.0
35.024411320 214472.0
35.046144200 184993.0
35.067877080 158157.0
35.089609960 143568.0
35.111342840 130600.0
35.133075720 114859.0
35.154808600 99973.0
35.176541480 91776.0
35.198274360 89420.0
35.220007240 88669.0
35.241740120 89458.0
35.263473000 88936.0
35.285205880 88715.0
35.306938760 88716.0
35.328671640 89088.0
35.350404520 89344.0
35.372137400 89385.0
35.393870280 89623.0
35.415603160 89900.0
35.437336040 90452.0
35.459068920 93938.0
35.480801800 102461.0
35.502534680 118141.0
35.524267560 129743.0
35.546000440 130577.0
35.567733320 131483.0
35.589466200 147236.0
35.611199080 201958.0
35.632931960 391404.0
35.654664840 1860179.0
35.676397720 5709240.0
35.698130600 2704956.0
35.719863480 653560.0
35.741596360 831240.0
35.763329240 2671430.0
35.785062120 1867919.0
35.806795000 458908.0
35.828527880 196146.0
35.850260760 141303.0
35.871993640 123203.0
35.893726520 115039.0
35.915459400 107929.0
35.937192280 104254.0
35.958925160 118268.0
35.980658040 152684.0
36.002390920 191200.0
36.024123800 213638.0
36.045856680 205813.0
36.067589560 183250.0
36.089322440 161574.0
36.111055320 147466.0
36.132788200 132213.0
36.154521080 110419.0
36.176253960 86803.0
36.197986840 67475.0
36.219719720 56836.0
36.241452600 52574.0
36.263185480 50377.0
36.284918360 48238.0
36.306651240 46325.0
36.328384120 44912.0
36.350117000 44092.0
36.371849880 43568.0
36.393582760 42224.0
36.415315640 41543.0
36.437048520 41032.0
36.458781400 40648.0
36.480514280 39501.0
36.502247160 39183.0
36.523980040 38873.0
36.545712920 38603.0
36.567445800 38037.0
36.589178680 37395.0
36.610911560 37124.0
36.632644440 36594.0
36.654377320 36503.0
36.676110200 36039.0
36.697843080 35965.0
36.719575960 35956.0
36.741308840 35749.0
36.763041720 35707.0
36.784774600 35363.0
36.806507480 34999.0
36.828240360 34806.0
36.849973240 34479.0
36.871706120 34417.0
36.893439000 33982.0
36.915171880 34019.0
36.936904760 33947.0
36.958637640 33527.0
36.980370520 33238.0
37.002103400 33397.0
37.023836280 33108.0
37.045569160 32956.0
37.067302040 32836.0
37.089034920 32891.0
37.110767800 32327.0
37.132500680 32285.0
37.154233560 32064.0
37.175966440 31937.0
37.197699320 32164.0
37.219432200 31913.0
37.241165080 31486.0
37.262897960 31570.0
37.284630840 31237.0
37.306363720 31052.0
37.328096600 31114.0
37.349829480 31298.0
37.371562360 31093.0
37.393295240 31357.0
37.415028120 31502.0
37.436761000 30616.0
37.458493880 30350.0
37.480226760 30692.0
37.501959640 30773.0
37.523692520 30062.0
37.545425400 29422.0
37.567158280 29712.0
37.588891160 29238.0
37.610624040 28919.0
37.632356920 29476.0
37.654089800 29440.0
37.675822680 29228.0
37.697555560 29236.0
37.719288440 29017.0
37.741021320 29659.0
37.762754200 30465.0
37.784487080 31550.0
37.806219960 32010.0
37.827952840 31759.0
37.849685720 31805.0
37.871418600 31542.0
37.893151480 31216.0
37.914884360 30752.0
37.936617240 29835.0
37.958350120 29648.0
37.980083000 28692.0
38.001815880 28605.0
38.023548760 27825.0
38.045281640 28204.0
38.067014520 27745.0
38.088747400 27663.0
38.110480280 27483.0
38.132213160 27425.0
38.153946040 26687.0
38.175678920 26984.0
38.197411800 26807.0
38.219144680 26425.0
38.240877560 26890.0
38.262610440 26234.0
38.284343320 25865.0
38.306076200 26013.0
38.327809080 26028.0
38.349541960 25745.0
38.371274840 25724.0
38.393007720 25791.0
38.414740600 25249.0
38.436473480 25211.0
38.458206360 25013.0
38.479939240 25189.0
38.501672120 25269.0
38.523405000 24718.0
38.545137880 24336.0
38.566870760 24271.0
38.588603640 24386.0
38.610336520 24326.0
38.632069400 24059.0
38.653802280 24268.0
38.675535160 23570.0
38.697268040 23617.0
38.719000920 23697.0
38.740733800 23622.0
38.762466680 23436.0
38.784199560 23153.0
38.805932440 23213.0
38.827665320 23281.0
38.849398200 23340.0
38.871131080 23448.0
38.892863960 23506.0
38.914596840 23371.0
38.936329720 23287.0
38.958062600 23091.0
38.979795480 23128.0
39.001528360 22984.0
39.023261240 22707.0
39.044994120 22727.0
39.066727000 22779.0
39.088459880 22444.0
39.110192760 22516.0
39.131925640 22262.0
39.153658520 22305.0
39.175391400 21877.0
39.197124280 22031.0
39.218857160 21782.0
39.240590040 22000.0
39.262322920 21620.0
39.284055800 21779.0
39.305788680 21873.0
39.327521560 21879.0
39.349254440 21954.0
39.370987320 21708.0
39.392720200 21677.0
39.414453080 21558.0
39.436185960 21588.0
39.457918840 21651.0
39.479651720 21546.0
39.501384600 21367.0
39.523117480 21181.0
39.544850360 21315.0
39.566583240 21217.0
39.588316120 21006.0
39.610049000 20966.0
39.631781880 20943.0
39.653514760 20961.0
39.675247640 21168.0
39.696980520 21027.0
39.718713400 21034.0
39.740446280 21156.0
39.762179160 20996.0
39.783912040 20670.0
39.805644920 20435.0
39.827377800 20398.0
39.849110680 20213.0
39.870843560 20413.0
39.892576440 20341.0
39.914309320 20429.0
39.936042200 20043.0
39.957775080 20070.0
39.979507960 20048.0
40.001240840 19886.0
40.022973720 19975.0
40.044706600 19657.0
40.066439480 19593.0
40.088172360 19489.0
40.109905240 19572.0
40.131638120 19620.0
40.153371000 19339.0
40.175103880 19411.0
40.196836760 19447.0
40.218569640 19200.0
40.240302520 19068.0
40.262035400 19340.0
40.283768280 19104.0
40.305501160 19038.0
40.327234040 19022.0
40.348966920 18812.0
40.370699800 18827.0
40.392432680 19017.0
40.414165560 18688.0
40.435898440 18598.0
40.457631320 18349.0
40.479364200 18677.0
40.501097080 18505.0
40.522829960 18357.0
40.544562840 18439.0
40.566295720 18385.0
40.588028600 17987.0
40.609761480 18126.0
40.631494360 17946.0
40.653227240 17947.0
40.674960120 17882.0
40.696693000 17767.0
40.718425880 17839.0
40.740158760 17964.0
40.761891640 17829.0
40.783624520 17403.0
40.805357400 17637.0
40.827090280 17586.0
40.848823160 17344.0
40.870556040 17616.0
40.892288920 17526.0
40.914021800 17256.0
40.935754680 17159.0
40.957487560 17136.0
40.979220440 16841.0
41.000953320 16978.0
41.022686200 16928.0
41.044419080 17159.0
41.066151960 16836.0
41.087884840 16496.0
41.109617720 16716.0
41.131350600 16650.0
41.153083480 16535.0
41.174816360 16584.0
41.196549240 16292.0
41.218282120 16532.0
41.240015000 16089.0
41.261747880 16429.0
41.283480760 16347.0
41.305213640 16108.0
41.326946520 15998.0
41.348679400 15991.0
41.370412280 16190.0
41.392145160 15600.0
41.413878040 15885.0
41.435610920 15895.0
41.457343800 15577.0
41.479076680 15698.0
41.500809560 15395.0
41.522542440 15414.0
41.544275320 15433.0
41.566008200 15752.0
41.587741080 15318.0
41.609473960 15194.0
41.631206840 15465.0
41.652939720 15289.0
41.674672600 15269.0
41.696405480 15045.0
41.718138360 15117.0
41.739871240 14940.0
41.761604120 14976.0
41.783337000 14731.0
41.805069880 14727.0
41.826802760 14556.0
41.848535640 14805.0
41.870268520 14822.0
41.892001400 14614.0
41.913734280 14471.0
41.935467160 14326.0
41.957200040 14253.0
41.978932920 14308.0
42.000665800 14247.0
42.022398680 14133.0
42.044131560 14367.0
42.065864440 14047.0
42.087597320 13926.0
42.109330200 14179.0
42.131063080 13973.0
42.152795960 13912.0
42.174528840 13719.0
42.196261720 13847.0
42.217994600 13722.0
42.239727480 13762.0
42.261460360 13736.0
42.283193240 13565.0
42.304926120 13501.0
42.326659000 13476.0
42.348391880 13355.0
42.370124760 13335.0
42.391857640 13521.0
42.413590520 13366.0
42.435323400 13270.0
42.457056280 13071.0
42.478789160 13235.0
42.500522040 13303.0
42.522254920 12969.0
42.543987800 13165.0
42.565720680 12907.0
42.587453560 13050.0
42.609186440 12888.0
42.630919320 12884.0
42.652652200 12713.0
42.674385080 12650.0
42.696117960 12700.0
42.717850840 12628.0
42.739583720 12687.0
42.761316600 12439.0
42.783049480 12422.0
42.804782360 12341.0
42.826515240 12316.0
42.848248120 12335.0
42.869981000 12364.0
42.891713880 12367.0
42.913446760 12302.0
42.935179640 12130.0
42.956912520 12108.0
42.978645400 12057.0
43.000378280 11964.0
43.022111160 12088.0
43.043844040 12138.0
43.065576920 11887.0
43.087309800 11874.0
43.109042680 11819.0
43.130775560 11896.0
43.152508440 11651.0
43.174241320 11730.0
43.195974200 11764.0
43.217707080 11698.0
43.239439960 11685.0
43.261172840 11694.0
43.282905720 11739.0
43.304638600 12134.0
43.326371480 12689.0
43.348104360 12965.0
43.369837240 12746.0
43.391570120 12088.0
43.413303000 11780.0
43.435035880 11659.0
43.456768760 11360.0
43.478501640 11266.0
43.500234520 11053.0
43.521967400 11061.0
43.543700280 10969.0
43.565433160 10936.0
43.587166040 11036.0
43.608898920 11061.0
43.630631800 10842.0
43.652364680 10691.0
43.674097560 10851.0
43.695830440 10539.0
43.717563320 10574.0
43.739296200 10498.0
43.761029080 10424.0
43.782761960 10425.0
43.804494840 10456.0
43.826227720 10345.0
43.847960600 10444.0
43.869693480 10379.0
43.891426360 10411.0
43.913159240 10802.0
43.934892120 10872.0
43.956625000 11364.0
43.978357880 11285.0
44.000090760 10645.0
44.021823640 10554.0
44.043556520 10667.0
44.065289400 10780.0
44.087022280 10147.0
44.108755160 9984.0
44.130488040 9910.0
44.152220920 10074.0
44.173953800 9756.0
44.195686680 9686.0
44.217419560 9696.0
44.239152440 9526.0
44.260885320 9572.0
44.282618200 9714.0
44.304351080 9610.0
44.326083960 9521.0
44.347816840 9544.0
44.369549720 9489.0
44.391282600 9337.0
44.413015480 9406.0
44.434748360 9421.0
44.456481240 9188.0
44.478214120 9488.0
44.499947000 9153.0
44.521679880 9134.0
44.543412760 9133.0
44.565145640 9111.0
44.586878520 9080.0
44.608611400 9271.0
44.630344280 9228.0
44.652077160 8875.0
44.673810040 8950.0
44.695542920 8916.0
44.717275800 8823.0
44.739008680 8852.0
44.760741560 8853.0
44.782474440 8653.0
44.804207320 8820.0
44.825940200 8706.0
44.847673080 8591.0
44.869405960 8600.0
44.891138840 8593.0
44.912871720 8647.0
44.934604600 8486.0
44.956337480 8449.0
44.978070360 8428.0
44.999803240 8646.0
45.021536120 8299.0
45.043269000 8473.0
45.065001880 8313.0
45.086734760 8303.0
45.108467640 8411.0
45.130200520 8250.0
45.151933400 8069.0
45.173666280 8211.0
45.195399160 8163.0
45.217132040 8107.0
45.238864920 8120.0
45.260597800 8127.0
45.282330680 8212.0
45.304063560 7803.0
45.325796440 7837.0
45.347529320 7983.0
45.369262200 7791.0
45.390995080 7794.0
45.412727960 7805.0
45.434460840 7859.0
45.456193720 7742.0
45.477926600 7695.0
45.499659480 7637.0
45.521392360 7551.0
45.543125240 7514.0
45.564858120 7623.0
45.586591000 7545.0
45.608323880 7520.0
45.630056760 7565.0
45.651789640 7427.0
45.673522520 7531.0
45.695255400 7215.0
45.716988280 7363.0
45.738721160 7389.0
45.760454040 7216.0
45.782186920 7228.0
45.803919800 7122.0
45.825652680 7010.0
45.847385560 7296.0
45.869118440 7246.0
45.890851320 6896.0
45.912584200 7048.0
45.934317080 6970.0
45.956049960 6955.0
45.977782840 6987.0
45.999515720 6885.0
46.021248600 6897.0
46.042981480 6822.0
46.064714360 6849.0
46.086447240 7081.0
46.108180120 6840.0
46.129913000 6679.0
46.151645880 6771.0
46.173378760 6661.0
46.195111640 6709.0
46.216844520 6677.0
46.238577400 6703.0
46.260310280 6550.0
46.282043160 6614.0
46.303776040 6619.0
46.325508920 6586.0
46.347241800 6538.0
46.368974680 6482.0
46.390707560 6462.0
46.412440440 6556.0
46.434173320 6511.0
46.455906200 6372.0
46.477639080 6388.0
46.499371960 6406.0
46.521104840 6251.0
46.542837720 6204.0
46.564570600 6262.0
46.586303480 6230.0
46.608036360 6183.0
46.629769240 6226.0
46.651502120 6324.0
46.673235000 6149.0
46.694967880 6092.0
46.716700760 6074.0
46.738433640 6003.0
46.760166520 6033.0
46.781899400 6001.0
46.803632280 6032.0
46.825365160 6086.0
46.847098040 6010.0
46.868830920 5988.0
46.890563800 5969.0
46.912296680 5974.0
46.934029560 5899.0
46.955762440 5867.0
46.977495320 5797.0
46.999228200 5769.0
47.020961080 5562.0
47.042693960 5800.0
47.064426840 5739.0
47.086159720 5625.0
47.107892600 5596.0
47.129625480 5595.0
47.151358360 5665.0
47.173091240 5623.0
47.194824120 5503.0
47.216557000 5549.0
47.238289880 5412.0
47.260022760 5386.0
47.281755640 5337.0
47.303488520 5545.0
47.325221400 5443.0
47.346954280 5310.0
47.368687160 5301.0
47.390420040 5358.0
47.412152920 5533.0
47.433885800 5343.0
47.455618680 5381.0
47.477351560 5361.0
47.499084440 5256.0
47.520817320 5321.0
47.542550200 5347.0
47.564283080 5369.0
47.586015960 5303.0
47.607748840 5256.0
47.629481720 5372.0
47.651214600 5377.0
47.672947480 5342.0
47.694680360 5303.0
47.716413240 5386.0
47.738146120 5084.0
47.759879000 5270.0
47.781611880 5140.0
47.803344760 5242.0
47.825077640 5273.0
47.846810520 5416.0
47.868543400 5993.0
47.890276280 6841.0
47.912009160 8362.0
47.933742040 10653.0
47.955474920 9827.0
47.977207800 7592.0
47.998940680 7201.0
48.020673560 7582.0
48.042406440 7724.0
48.064139320 6245.0
48.085872200 5432.0
48.107605080 5313.0
48.129337960 5052.0
48.151070840 4989.0
48.172803720 4866.0
48.194536600 4903.0
48.216269480 4905.0
48.238002360 4767.0
48.259735240 4796.0
48.281468120 4669.0
48.303201000 4749.0
48.324933880 4695.0
48.346666760 4632.0
48.368399640 4555.0
48.390132520 4461.0
48.411865400 4468.0
48.433598280 4526.0
48.455331160 4435.0
48.477064040 4430.0
48.498796920 4469.0
48.520529800 4520.0
48.542262680 4382.0
48.563995560 4431.0
48.585728440 4453.0
48.607461320 4353.0
48.629194200 4317.0
48.650927080 4355.0
48.672659960 4313.0
48.694392840 4525.0
48.716125720 4397.0
48.737858600 4203.0
48.759591480 4287.0
48.781324360 4255.0
48.803057240 4209.0
48.824790120 4311.0
48.846523000 4206.0
48.868255880 4172.0
48.889988760 4187.0
48.911721640 4179.0
48.933454520 4069.0
48.955187400 4172.0
48.976920280 4202.0
48.998653160 4043.0
49.020386040 4133.0
49.042118920 4153.0
49.063851800 4142.0
49.085584680 3954.0
49.107317560 3949.0
49.129050440 4005.0
49.150783320 3958.0
49.172516200 3927.0
49.194249080 3983.0
49.215981960 3868.0
49.237714840 3849.0
49.259447720 3874.0
49.281180600 3801.0
49.302913480 3815.0
49.324646360 3937.0
49.346379240 4320.0
49.368112120 4756.0
49.389845000 4397.0
49.411577880 4020.0
49.433310760 4025.0
49.455043640 4262.0
49.476776520 4091.0
49.498509400 3850.0
49.520242280 3842.0
49.541975160 3776.0
49.563708040 3838.0
49.585440920 3681.0
49.607173800 3724.0
49.628906680 3612.0
49.650639560 3620.0
49.672372440 3594.0
49.694105320 3512.0
49.715838200 3550.0
49.737571080 3583.0
49.759303960 3508.0
49.781036840 3611.0
49.802769720 3576.0
49.824502600 3570.0
49.846235480 3563.0
49.867968360 3465.0
49.889701240 3494.0
49.911434120 3468.0
49.933167000 3469.0
49.954899880 3313.0
49.976632760 3479.0
49.998365640 3413.0
50.020098520 3309.0
50.041831400 3376.0
50.063564280 3395.0
50.085297160 3368.0
50.107030040 3419.0
50.128762920 3443.0
50.150495800 3347.0
50.172228680 3377.0
50.193961560 3248.0
50.215694440 3348.0
50.237427320 3381.0
50.259160200 3343.0
50.280893080 3155.0
50.302625960 3269.0
50.324358840 3283.0
50.346091720 3243.0
50.367824600 3357.0
50.389557480 3343.0
50.411290360 3259.0
50.433023240 3141.0
50.454756120 3187.0
50.476489000 3128.0
50.498221880 3197.0
50.519954760 3140.0
50.541687640 2961.0
50.563420520 3029.0
50.585153400 3058.0
50.606886280 3121.0
50.628619160 3074.0
50.650352040 3057.0
50.672084920 2983.0
50.693817800 3102.0
50.715550680 3051.0
50.737283560 3012.0
50.759016440 3065.0
50.780749320 2996.0
50.802482200 2986.0
50.824215080 2913.0
50.845947960 3022.0
50.867680840 2901.0
50.889413720 3003.0
50.911146600 2916.0
50.932879480 2904.0
50.954612360 2826.0
50.976345240 2849.0
50.998078120 2850.0
51.019811000 2756.0
51.041543880 2845.0
51.063276760 2830.0
51.085009640 2795.0
51.106742520 2827.0
51.128475400 2798.0
51.150208280 2789.0
51.171941160 2843.0
51.193674040 2825.0
51.215406920 2813.0
51.237139800 2589.0
51.258872680 2624.0
51.280605560 2733.0
51.302338440 2742.0
51.324071320 2677.0
51.345804200 2700.0
51.367537080 2687.0
51.389269960 2728.0
51.411002840 2734.0
51.432735720 2639.0
51.454468600 2711.0
51.476201480 2696.0
51.497934360 2612.0
51.519667240 2658.0
51.541400120 2639.0
51.563133000 2609.0
51.584865880 2611.0
51.606598760 2587.0
51.628331640 2593.0
51.650064520 2595.0
51.671797400 2598.0
51.693530280 2588.0
51.715263160 2619.0
51.736996040 2416.0
51.758728920 2409.0
51.780461800 2423.0
51.802194680 2552.0
51.823927560 2456.0
51.845660440 2544.0
51.867393320 2412.0
51.889126200 2517.0
51.910859080 2505.0
51.932591960 2515.0
51.954324840 2521.0
51.976057720 2463.0
51.997790600 2477.0
52.019523480 2417.0
52.041256360 2383.0
52.062989240 2315.0
52.084722120 2350.0
52.106455000 2487.0
52.128187880 2376.0
52.149920760 2454.0
52.171653640 2424.0
52.193386520 2448.0
52.215119400 2394.0
52.236852280 2357.0
52.258585160 2328.0
52.280318040 2385.0
52.302050920 2403.0
52.323783800 2343.0
52.345516680 2257.0
52.367249560 2354.0
52.388982440 2346.0
52.410715320 2315.0
52.432448200 2302.0
52.454181080 2318.0
52.475913960 2259.0
52.497646840 2381.0
52.519379720 2438.0
52.541112600 2341.0
52.562845480 2309.0
52.584578360 2394.0
52.606311240 2282.0
52.628044120 2257.0
52.649777000 2291.0
52.671509880 2206.0
52.693242760 2243.0
52.714975640 2167.0
52.736708520 2188.0
52.758441400 2243.0
52.780174280 2284.0
52.801907160 2270.0
52.823640040 2243.0
52.845372920 2211.0
52.867105800 2195.0
52.888838680 2163.0
52.910571560 2256.0
52.932304440 2340.0
52.954037320 2299.0
52.975770200 2240.0
52.997503080 2271.0
53.019235960 2391.0
53.040968840 2329.0
53.062701720 2297.0
53.084434600 2167.0
53.106167480 2154.0
53.127900360 2183.0
53.149633240 2213.0
53.171366120 2162.0
53.193099000 2210.0
53.214831880 2137.0
53.236564760 2059.0
53.258297640 2023.0
53.280030520 2065.0
53.301763400 2028.0
53.323496280 1974.0
53.345229160 1977.0
53.366962040 2028.0
53.388694920 2004.0
53.410427800 1986.0
53.432160680 1994.0
53.453893560 1988.0
53.475626440 2044.0
53.497359320 1908.0
53.519092200 1944.0
53.540825080 1885.0
53.562557960 1961.0
53.584290840 1857.0
53.606023720 1915.0
53.627756600 1878.0
53.649489480 1968.0
53.671222360 1927.0
53.692955240 1912.0
53.714688120 1855.0
53.736421000 1904.0
53.758153880 1898.0
53.779886760 1819.0
53.801619640 1881.0
53.823352520 1809.0
53.845085400 1892.0
53.866818280 1852.0
53.888551160 1858.0
53.910284040 1848.0
53.932016920 1866.0
53.953749800 1861.0
53.975482680 1725.0
53.997215560 1834.0
54.018948440 1907.0
54.040681320 1823.0
54.062414200 1754.0
54.084147080 1835.0
54.105879960 1836.0
54.127612840 1785.0
54.149345720 1792.0
54.171078600 1843.0
54.192811480 1823.0
54.214544360 1768.0
54.236277240 1858.0
54.258010120 1790.0
54.279743000 1696.0
54.301475880 1753.0
54.323208760 1826.0
54.344941640 1721.0
54.366674520 1787.0
54.388407400 1730.0
54.410140280 1792.0
54.431873160 1676.0
54.453606040 1688.0
54.475338920 1652.0
54.497071800 1666.0
54.518804680 1741.0
54.540537560 1654.0
54.562270440 1698.0
54.584003320 1764.0
54.605736200 1869.0
54.627469080 2250.0
54.649201960 2133.0
54.670934840 1826.0
54.692667720 1719.0
54.714400600 1748.0
54.736133480 1769.0
54.757866360 1842.0
54.779599240 1989.0
54.801332120 1887.0
54.823065000 1647.0
54.844797880 1622.0
54.866530760 1641.0
54.888263640 1646.0
54.909996520 1627.0
54.931729400 1655.0
54.953462280 1599.0
54.975195160 1591.0
54.996928040 1571.0
55.018660920 1582.0
55.040393800 1649.0
55.062126680 1515.0
55.083859560 1556.0
55.105592440 1540.0
55.127325320 1579.0
55.149058200 1592.0
55.170791080 1531.0
55.192523960 1566.0
55.214256840 1503.0
55.235989720 1587.0
55.257722600 1555.0
55.279455480 1504.0
55.301188360 1480.0
55.322921240 1576.0
55.344654120 1610.0
55.366387000 1551.0
55.388119880 1508.0
55.409852760 1469.0
55.431585640 1511.0
55.453318520 1535.0
55.475051400 1492.0
55.496784280 1548.0
55.518517160 1546.0
55.540250040 1549.0
55.561982920 1508.0
55.583715800 1495.0
55.605448680 1492.0
55.627181560 1574.0
55.648914440 1429.0
55.670647320 1413.0
55.692380200 1513.0
55.714113080 1449.0
55.735845960 1473.0
55.757578840 1457.0
55.779311720 1521.0
55.801044600 1480.0
55.822777480 1397.0
55.844510360 1405.0
55.866243240 1501.0
55.887976120 1406.0
55.909709000 1486.0
55.931441880 1385.0
55.953174760 1399.0
55.974907640 1394.0
55.996640520 1505.0
56.018373400 1495.0
56.040106280 1450.0
56.061839160 1469.0
56.083572040 1452.0
56.105304920 1420.0
56.127037800 1435.0
56.148770680 1461.0
56.170503560 1420.0
56.192236440 1482.0
56.213969320 1485.0
56.235702200 1395.0
56.257435080 1387.0
56.279167960 1447.0
56.300900840 1464.0
56.322633720 1346.0
56.344366600 1433.0
56.366099480 1357.0
56.387832360 1329.0
56.409565240 1399.0
56.431298120 1361.0
56.453031000 1379.0
56.474763880 1389.0
56.496496760 1357.0
56.518229640 1306.0
56.539962520 1306.0
56.561695400 1335.0
56.583428280 1325.0
56.605161160 1344.0
56.626894040 1289.0
56.648626920 1372.0
56.670359800 1355.0
56.692092680 1321.0
56.713825560 1297.0
56.735558440 1332.0
56.757291320 1378.0
56.779024200 1337.0
56.800757080 1328.0
56.822489960 1374.0
56.844222840 1367.0
56.865955720 1345.0
56.887688600 1276.0
56.909421480 1324.0
56.931154360 1377.0
56.952887240 1337.0
56.974620120 1336.0
56.996353000 1303.0
57.018085880 1303.0
57.039818760 1382.0
57.061551640 1365.0
57.083284520 1283.0
57.105017400 1306.0
57.126750280 1311.0
57.148483160 1212.0
57.170216040 1242.0
57.191948920 1311.0
57.213681800 1237.0
57.235414680 1260.0
57.257147560 1280.0
57.278880440 1239.0
57.300613320 1277.0
57.322346200 1263.0
57.344079080 1325.0
57.365811960 1248.0
57.387544840 1292.0
57.409277720 1306.0
57.431010600 1299.0
57.452743480 1272.0
57.474476360 1363.0
57.496209240 1300.0
57.517942120 1321.0
57.539675000 1249.0
57.561407880 1272.0
57.583140760 1233.0
57.604873640 1208.0
57.626606520 1290.0
57.648339400 1281.0
57.670072280 1280.0
57.691805160 1204.0
57.713538040 1263.0
57.735270920 1243.0
57.757003800 1251.0
57.778736680 1276.0
57.800469560 1225.0
57.822202440 1235.0
57.843935320 1230.0
57.865668200 1173.0
57.887401080 1280.0
57.909133960 1209.0
57.930866840 1203.0
57.952599720 1223.0
57.974332600 1241.0
57.996065480 1228.0
58.017798360 1244.0
58.039531240 1252.0
58.061264120 1155.0
58.082997000 1131.0
58.104729880 1145.0
58.126462760 1210.0
58.148195640 1163.0
58.169928520 1244.0
58.191661400 1222.0
58.213394280 1158.0
58.235127160 1189.0
58.256860040 1215.0
58.278592920 1209.0
58.300325800 1235.0
58.322058680 1181.0
58.343791560 1140.0
58.365524440 1210.0
58.387257320 1160.0
58.408990200 1215.0
58.430723080 1130.0
58.452455960 1236.0
58.474188840 1171.0
58.495921720 1224.0
58.517654600 1145.0
58.539387480 1119.0
58.561120360 1201.0
58.582853240 1072.0
58.604586120 1176.0
58.626319000 1112.0
58.648051880 1190.0
58.669784760 1123.0
58.691517640 1176.0
58.713250520 1147.0
58.734983400 1154.0
58.756716280 1145.0
58.778449160 1147.0
58.800182040 1136.0
58.821914920 1121.0
58.843647800 1156.0
58.865380680 1121.0
58.887113560 1145.0
58.908846440 1217.0
58.930579320 1095.0
58.952312200 1058.0
58.974045080 1108.0
58.995777960 1085.0
59.017510840 1168.0
59.039243720 1033.0
59.060976600 1081.0
59.082709480 1129.0
59.104442360 1067.0
59.126175240 1087.0
59.147908120 1126.0
59.169641000 1071.0
59.191373880 1068.0
59.213106760 1063.0
59.234839640 1122.0
59.256572520 1195.0
59.278305400 1139.0
59.300038280 1096.0
59.321771160 1022.0
59.343504040 1087.0
59.365236920 1172.0
59.386969800 1167.0
59.408702680 1075.0
59.430435560 1043.0
59.452168440 1100.0
59.473901320 1080.0
59.495634200 1115.0
59.517367080 1069.0
59.539099960 1130.0
59.560832840 1014.0
59.582565720 1087.0
59.604298600 1000.0
59.626031480 1063.0
59.647764360 1075.0
59.669497240 1111.0
59.691230120 1032.0
59.712963000 1042.0
59.734695880 1057.0
59.756428760 1051.0
59.778161640 1106.0
59.799894520 1020.0
59.821627400 1062.0
59.843360280 1076.0
59.865093160 1054.0
59.886826040 1051.0
59.908558920 1095.0
59.930291800 1081.0
59.952024680 1145.0
59.973757560 1017.0
59.995490440 1057.0
60.017223320 995.0
60.038956200 999.0
60.060689080 1014.0
60.082421960 1007.0
60.104154840 994.0
60.125887720 1055.0
60.147620600 952.0
60.169353480 1030.0
60.191086360 1036.0
60.212819240 998.0
60.234552120 1004.0
60.256285000 972.0
60.278017880 1048.0
60.299750760 1033.0
60.321483640 1000.0
60.343216520 1073.0
60.364949400 1015.0
60.386682280 1021.0
60.408415160 1050.0
60.430148040 1049.0
60.451880920 1067.0
60.473613800 1009.0
60.495346680 995.0
60.517079560 1028.0
60.538812440 1007.0
60.560545320 1037.0
60.582278200 1020.0
60.604011080 1050.0
60.625743960 973.0
60.647476840 1013.0
60.669209720 1023.0
60.690942600 1014.0
60.712675480 1017.0
60.734408360 971.0
60.756141240 990.0
60.777874120 1000.0
60.799607000 995.0
60.821339880 1008.0
60.843072760 1031.0
60.864805640 952.0
60.886538520 982.0
60.908271400 1024.0
60.930004280 974.0
60.951737160 971.0
60.973470040 955.0
60.995202920 916.0
61.016935800 976.0
61.038668680 927.0
61.060401560 940.0
61.082134440 921.0
61.103867320 1033.0
61.125600200 954.0
61.147333080 982.0
61.169065960 1033.0
61.190798840 984.0
61.212531720 977.0
61.234264600 1002.0
61.255997480 958.0
61.277730360 995.0
61.299463240 949.0
61.321196120 943.0
61.342929000 947.0
61.364661880 954.0
61.386394760 966.0
61.408127640 990.0
61.429860520 968.0
61.451593400 978.0
61.473326280 942.0
61.495059160 921.0
61.516792040 920.0
61.538524920 998.0
61.560257800 962.0
61.581990680 1011.0
61.603723560 962.0
61.625456440 1033.0
61.647189320 934.0
61.668922200 947.0
61.690655080 967.0
61.712387960 960.0
61.734120840 970.0
61.755853720 960.0
61.777586600 995.0
61.799319480 908.0
61.821052360 895.0
61.842785240 962.0
61.864518120 978.0
61.886251000 970.0
61.907983880 952.0
61.929716760 940.0
61.951449640 957.0
61.973182520 970.0
61.994915400 903.0
62.016648280 994.0
62.038381160 946.0
62.060114040 967.0
62.081846920 972.0
62.103579800 912.0
62.125312680 941.0
62.147045560 973.0
62.168778440 1001.0
62.190511320 890.0
62.212244200 940.0
62.233977080 921.0
62.255709960 853.0
62.277442840 861.0
62.299175720 969.0
62.320908600 888.0
62.342641480 929.0
62.364374360 937.0
62.386107240 864.0
62.407840120 841.0
62.429573000 897.0
62.451305880 882.0
62.473038760 877.0
62.494771640 911.0
62.516504520 923.0
62.538237400 882.0
62.559970280 901.0
62.581703160 918.0
62.603436040 940.0
62.625168920 940.0
62.646901800 849.0
62.668634680 862.0
62.690367560 888.0
62.712100440 900.0
62.733833320 912.0
62.755566200 911.0
62.777299080 914.0
62.799031960 892.0
62.820764840 862.0
62.842497720 889.0
62.864230600 888.0
62.885963480 918.0
62.907696360 905.0
62.929429240 890.0
62.951162120 886.0
62.972895000 912.0
62.994627880 913.0
63.016360760 860.0
63.038093640 889.0
63.059826520 913.0
63.081559400 906.0
63.103292280 917.0
63.125025160 891.0
63.146758040 906.0
63.168490920 879.0
63.190223800 857.0
63.211956680 961.0
63.233689560 949.0
63.255422440 900.0
63.277155320 836.0
63.298888200 863.0
63.320621080 905.0
63.342353960 881.0
63.364086840 926.0
63.385819720 864.0
63.407552600 869.0
63.429285480 939.0
63.451018360 908.0
63.472751240 879.0
63.494484120 914.0
63.516217000 829.0
63.537949880 878.0
63.559682760 849.0
63.581415640 845.0
63.603148520 895.0
63.624881400 853.0
63.646614280 832.0
63.668347160 874.0
63.690080040 872.0
63.711812920 882.0
63.733545800 867.0
63.755278680 855.0
63.777011560 911.0
63.798744440 851.0
63.820477320 794.0
63.842210200 917.0
63.863943080 895.0
63.885675960 910.0
63.907408840 877.0
63.929141720 896.0
63.950874600 884.0
63.972607480 892.0
63.994340360 888.0
64.016073240 810.0
64.037806120 871.0
64.059539000 859.0
64.081271880 878.0
64.103004760 852.0
64.124737640 870.0
64.146470520 884.0
64.168203400 848.0
64.189936280 892.0
64.211669160 895.0
64.233402040 838.0
64.255134920 882.0
64.276867800 883.0
64.298600680 870.0
64.320333560 858.0
64.342066440 843.0
64.363799320 839.0
64.385532200 864.0
64.407265080 914.0
64.428997960 904.0
64.450730840 939.0
64.472463720 947.0
64.494196600 956.0
64.515929480 901.0
64.537662360 913.0
64.559395240 883.0
64.581128120 858.0
64.602861000 893.0
64.624593880 947.0
64.646326760 908.0
64.668059640 962.0
64.689792520 1014.0
64.711525400 1020.0
64.733258280 1023.0
64.754991160 919.0
64.776724040 946.0
64.798456920 868.0
64.820189800 959.0
64.841922680 959.0
64.863655560 999.0
64.885388440 1105.0
64.907121320 1288.0
64.928854200 1342.0
64.950587080 1635.0
64.972319960 2051.0
64.994052840 2604.0
65.015785720 3337.0
65.037518600 3954.0
65.059251480 4351.0
65.080984360 3582.0
65.102717240 2408.0
65.124450120 1786.0
65.146183000 1380.0
65.167915880 1239.0
65.189648760 1102.0
65.211381640 1057.0
65.233114520 993.0
65.254847400 1001.0
65.276580280 951.0
65.298313160 938.0
65.320046040 942.0
65.341778920 937.0
65.363511800 938.0
65.385244680 906.0
65.406977560 872.0
65.428710440 884.0
65.450443320 882.0
65.472176200 855.0
65.493909080 907.0
65.515641960 942.0
65.537374840 896.0
65.559107720 853.0
65.580840600 870.0
65.602573480 840.0
65.624306360 859.0
65.646039240 851.0
65.667772120 865.0
65.689505000 854.0
65.711237880 839.0
65.732970760 884.0
65.754703640 819.0
65.776436520 851.0
65.798169400 916.0
65.819902280 844.0
65.841635160 857.0
65.863368040 864.0
65.885100920 822.0
65.906833800 879.0
65.928566680 796.0
65.950299560 777.0
65.972032440 865.0
65.993765320 847.0
66.015498200 829.0
66.037231080 900.0
66.058963960 904.0
66.080696840 797.0
66.102429720 850.0
66.124162600 780.0
66.145895480 844.0
66.167628360 861.0
66.189361240 807.0
66.211094120 837.0
66.232827000 824.0
66.254559880 809.0
66.276292760 857.0
66.298025640 784.0
66.319758520 819.0
66.341491400 818.0
66.363224280 808.0
66.384957160 832.0
66.406690040 880.0
66.428422920 802.0
66.450155800 842.0
66.471888680 839.0
66.493621560 889.0
66.515354440 847.0
66.537087320 850.0
66.558820200 849.0
66.580553080 791.0
66.602285960 832.0
66.624018840 853.0
66.645751720 887.0
66.667484600 851.0
66.689217480 804.0
66.710950360 818.0
66.732683240 839.0
66.754416120 843.0
66.776149000 877.0
66.797881880 848.0
66.819614760 786.0
66.841347640 830.0
66.863080520 857.0
66.884813400 839.0
66.906546280 860.0
66.928279160 814.0
66.950012040 817.0
66.971744920 928.0
66.993477800 884.0
67.015210680 1010.0
67.036943560 1110.0
67.058676440 1335.0
67.080409320 1944.0
67.102142200 2982.0
67.123875080 3286.0
67.145607960 2349.0
67.167340840 1573.0
67.189073720 1298.0
67.210806600 1086.0
67.232539480 1047.0
67.254272360 955.0
67.276005240 954.0
67.297738120 898.0
67.319471000 903.0
67.341203880 902.0
67.362936760 935.0
67.384669640 856.0
67.406402520 829.0
67.428135400 831.0
67.449868280 826.0
67.471601160 841.0
67.493334040 790.0
67.515066920 782.0
67.536799800 823.0
67.558532680 804.0
67.580265560 812.0
67.601998440 830.0
67.623731320 815.0
67.645464200 795.0
67.667197080 821.0
67.688929960 800.0
67.710662840 840.0
67.732395720 801.0
67.754128600 892.0
67.775861480 784.0
67.797594360 773.0
67.819327240 775.0
67.841060120 782.0
67.862793000 868.0
67.884525880 812.0
67.906258760 782.0
67.927991640 848.0
67.949724520 751.0
67.971457400 860.0
67.993190280 778.0
68.014923160 821.0
68.036656040 779.0
68.058388920 790.0
68.080121800 788.0
68.101854680 776.0
68.123587560 822.0
68.145320440 842.0
68.167053320 779.0
68.188786200 750.0
68.210519080 833.0
68.232251960 791.0
68.253984840 766.0
68.275717720 787.0
68.297450600 813.0
68.319183480 808.0
68.340916360 770.0
68.362649240 761.0
68.384382120 829.0
68.406115000 768.0
68.427847880 801.0
68.449580760 824.0
68.471313640 763.0
68.493046520 842.0
68.514779400 799.0
68.536512280 786.0
68.558245160 855.0
68.579978040 850.0
68.601710920 758.0
68.623443800 767.0
68.645176680 786.0
68.666909560 769.0
68.688642440 772.0
68.710375320 818.0
68.732108200 779.0
68.753841080 771.0
68.775573960 731.0
68.797306840 763.0
68.819039720 766.0
68.840772600 772.0
68.862505480 783.0
68.884238360 730.0
68.905971240 789.0
68.927704120 802.0
68.949437000 818.0
68.971169880 781.0
68.992902760 760.0
69.014635640 789.0
69.036368520 705.0
69.058101400 797.0
69.079834280 782.0
69.101567160 783.0
69.123300040 762.0
69.145032920 774.0
69.166765800 747.0
69.188498680 778.0
69.210231560 737.0
69.231964440 759.0
69.253697320 776.0
69.275430200 766.0
69.297163080 809.0
69.318895960 737.0
69.340628840 774.0
69.362361720 777.0
69.384094600 802.0
69.405827480 752.0
69.427560360 804.0
69.449293240 786.0
69.471026120 789.0
69.492759000 749.0
69.514491880 759.0
69.536224760 771.0
69.557957640 770.0
69.579690520 782.0
69.601423400 743.0
69.623156280 848.0
69.644889160 774.0
69.666622040 816.0
69.688354920 794.0
69.710087800 811.0
69.731820680 746.0
69.753553560 842.0
69.775286440 798.0
69.797019320 773.0
69.818752200 794.0
69.840485080 756.0
69.862217960 810.0
69.883950840 795.0
69.905683720 846.0
69.927416600 811.0
69.949149480 794.0
69.970882360 852.0
69.992615240 803.0
70.014348120 890.0
70.036081000 916.0
70.057813880 1022.0
70.079546760 1078.0
70.101279640 1123.0
70.123012520 1359.0
70.144745400 1609.0
70.166478280 1866.0
70.188211160 2063.0
70.209944040 2206.0
70.231676920 2224.0
70.253409800 2294.0
70.275142680 2293.0
70.296875560 2147.0
70.318608440 2277.0
70.340341320 2234.0
70.362074200 2284.0
70.383807080 2310.0
70.405539960 2393.0
70.427272840 2340.0
70.449005720 2326.0
70.470738600 2307.0
70.492471480 2295.0
70.514204360 2466.0
70.535937240 2332.0
70.557670120 2332.0
70.579403000 2322.0
70.601135880 2339.0
70.622868760 2334.0
70.644601640 2436.0
70.666334520 2401.0
70.688067400 2433.0
70.709800280 2368.0
70.731533160 2399.0
70.753266040 2353.0
70.774998920 2346.0
70.796731800 2298.0
70.818464680 2344.0
70.840197560 2389.0
70.861930440 2268.0
70.883663320 2333.0
70.905396200 2330.0
70.927129080 2389.0
70.948861960 2412.0
70.970594840 2354.0
70.992327720 2385.0
71.014060600 2319.0
71.035793480 2383.0
71.057526360 2424.0
71.079259240 2458.0
71.100992120 2487.0
71.122725000 2357.0
71.144457880 2433.0
71.166190760 2477.0
71.187923640 2376.0
71.209656520 2401.0
71.231389400 2469.0
71.253122280 2479.0
71.274855160 2540.0
71.296588040 2538.0
71.318320920 2471.0
71.340053800 2517.0
71.361786680 2486.0
71.383519560 2478.0
71.405252440 2537.0
71.426985320 2578.0
71.448718200 2488.0
71.470451080 2438.0
71.492183960 2560.0
71.513916840 2463.0
71.535649720 2458.0
71.557382600 2482.0
71.579115480 2620.0
71.600848360 2485.0
71.622581240 2502.0
71.644314120 2634.0
71.666047000 2548.0
71.687779880 2637.0
71.709512760 2667.0
71.731245640 2664.0
71.752978520 2718.0
71.774711400 2733.0
71.796444280 2731.0
71.818177160 2684.0
71.839910040 2872.0
71.861642920 2828.0
71.883375800 2771.0
71.905108680 2782.0
71.926841560 2886.0
71.948574440 2803.0
71.970307320 2923.0
71.992040200 2903.0
72.013773080 2850.0
72.035505960 3019.0
72.057238840 3048.0
72.078971720 3194.0
72.100704600 3118.0
72.122437480 3175.0
72.144170360 3194.0
72.165903240 3223.0
72.187636120 3377.0
72.209369000 3380.0
72.231101880 3492.0
72.252834760 3591.0
72.274567640 3723.0
72.296300520 3721.0
72.318033400 3961.0
72.339766280 4066.0
72.361499160 4348.0
72.383232040 4566.0
72.404964920 4798.0
72.426697800 5381.0
72.448430680 5972.0
72.470163560 6451.0
72.491896440 7443.0
72.513629320 8722.0
72.535362200 9863.0
72.557095080 11958.0
72.578827960 13875.0
72.600560840 16208.0
72.622293720 18071.0
72.644026600 19071.0
72.665759480 20316.0
72.687492360 20695.0
72.709225240 21520.0
72.730958120 22362.0
72.752691000 24538.0
72.774423880 28091.0
72.796156760 34501.0
72.817889640 44154.0
72.839622520 61440.0
72.861355400 92215.0
72.883088280 148042.0
72.904821160 237365.0
72.926554040 353888.0
72.948286920 487228.0
72.970019800 662007.0
72.991752680 926387.0
73.013485560 1142185.0
73.035218440 858568.0
73.056951320 433916.0
73.078684200 228585.0
73.100417080 172926.0
73.122149960 186170.0
73.143882840 229804.0
73.165615720 293007.0
73.187348600 385693.0
73.209081480 513917.0
73.230814360 550401.0
73.252547240 373951.0
73.274280120 187025.0
73.296013000 93642.0
73.317745880 56527.0
73.339478760 39971.0
73.361211640 30991.0
73.382944520 25214.0
73.404677400 21151.0
73.426410280 18336.0
73.448143160 16483.0
73.469876040 15047.0
73.491608920 13854.0
73.513341800 13066.0
73.535074680 11951.0
73.556807560 10752.0
73.578540440 9713.0
73.600273320 8914.0
73.622006200 7797.0
73.643739080 7385.0
73.665471960 7024.0
73.687204840 6466.0
73.708937720 6239.0
73.730670600 6037.0
73.752403480 5706.0
73.774136360 5634.0
73.795869240 5415.0
73.817602120 5299.0
73.839335000 5080.0
73.861067880 5065.0
73.882800760 5155.0
73.904533640 4949.0
73.926266520 4879.0
73.947999400 4657.0
73.969732280 4556.0
73.991465160 4590.0
74.013198040 4533.0
74.034930920 4607.0
74.056663800 4563.0
74.078396680 4330.0
74.100129560 4330.0
74.121862440 4312.0
74.143595320 4239.0
74.165328200 4214.0
74.187061080 4184.0
74.208793960 4156.0
74.230526840 3987.0
74.252259720 3982.0
74.273992600 4031.0
74.295725480 4070.0
74.317458360 4053.0
74.339191240 4045.0
74.360924120 3907.0
74.382657000 3832.0
74.404389880 3863.0
74.426122760 3971.0
74.447855640 3919.0
74.469588520 3928.0
74.491321400 3987.0
74.513054280 4006.0
74.534787160 3850.0
74.556520040 3949.0
74.578252920 3931.0
74.599985800 4166.0
74.621718680 4087.0
74.643451560 3926.0
74.665184440 4052.0
74.686917320 4086.0
74.708650200 4186.0
74.730383080 4132.0
74.752115960 4276.0
74.773848840 4282.0
74.795581720 4271.0
74.817314600 4454.0
74.839047480 4498.0
74.860780360 4634.0
74.882513240 4825.0
74.904246120 5202.0
74.925979000 5664.0
74.947711880 6555.0
74.969444760 7808.0
74.991177640 8869.0
75.012910520 9487.0
75.034643400 10042.0
75.056376280 10352.0
75.078109160 10367.0
75.099842040 9862.0
75.121574920 9594.0
75.143307800 9893.0
75.165040680 10399.0
75.186773560 11395.0
75.208506440 12521.0
75.230239320 14274.0
75.251972200 17189.0
75.273705080 21268.0
75.295437960 27552.0
75.317170840 39378.0
75.338903720 65118.0
75.360636600 141239.0
75.382369480 439371.0
75.404102360 815728.0
75.425835240 529818.0
75.447568120 226937.0
75.469301000 100239.0
75.491033880 54765.0
75.512766760 38754.0
75.534499640 36371.0
75.556232520 45942.0
75.577965400 79464.0
75.599698280 200007.0
75.621431160 376822.0
75.643164040 301656.0
75.664896920 143797.0
75.686629800 65454.0
75.708362680 35760.0
75.730095560 23772.0
75.751828440 18460.0
75.773561320 14612.0
75.795294200 11965.0
75.817027080 10395.0
75.838759960 9177.0
75.860492840 8661.0
75.882225720 8007.0
75.903958600 7550.0
75.925691480 7179.0
75.947424360 7134.0
75.969157240 6627.0
75.990890120 6131.0
76.012623000 5437.0
76.034355880 5025.0
76.056088760 4862.0
76.077821640 4897.0
76.099554520 4596.0
76.121287400 4598.0
76.143020280 4734.0
76.164753160 4826.0
76.186486040 5428.0
76.208218920 5853.0
76.229951800 6549.0
76.251684680 6858.0
76.273417560 6728.0
76.295150440 6557.0
76.316883320 6030.0
76.338616200 5453.0
76.360349080 4987.0
76.382081960 4752.0
76.403814840 4632.0
76.425547720 4670.0
76.447280600 4821.0
76.469013480 4905.0
76.490746360 4939.0
76.512479240 4465.0
76.534212120 4316.0
76.555945000 4168.0
76.577677880 3885.0
76.599410760 3469.0
76.621143640 3334.0
76.642876520 3277.0
76.664609400 3207.0
76.686342280 3108.0
76.708075160 3057.0
76.729808040 2950.0
76.751540920 2935.0
76.773273800 2838.0
76.795006680 2788.0
76.816739560 2788.0
76.838472440 2824.0
76.860205320 2768.0
76.881938200 2735.0
76.903671080 2674.0
76.925403960 2768.0
76.947136840 2684.0
76.968869720 2555.0
76.990602600 2543.0
77.012335480 2669.0
77.034068360 2530.0
77.055801240 2457.0
77.077534120 2515.0
77.099267000 2570.0
77.120999880 2507.0
77.142732760 2510.0
77.164465640 2462.0
77.186198520 2433.0
77.207931400 2369.0
77.229664280 2375.0
77.251397160 2404.0
77.273130040 2431.0
77.294862920 2380.0
77.316595800 2347.0
77.338328680 2439.0
77.360061560 2395.0
77.381794440 2378.0
77.403527320 2275.0
77.425260200 2376.0
77.446993080 2296.0
77.468725960 2256.0
77.490458840 2322.0
77.512191720 2435.0
77.533924600 2323.0
77.555657480 2282.0
77.577390360 2280.0
77.599123240 2262.0
77.620856120 2357.0
77.642589000 2335.0
77.664321880 2368.0
77.686054760 2280.0
77.707787640 2302.0
77.729520520 2320.0
77.751253400 2296.0
77.772986280 2237.0
77.794719160 2171.0
77.816452040 2219.0
77.838184920 2261.0
77.859917800 2191.0
77.881650680 2243.0
77.903383560 2296.0
77.925116440 2105.0
77.946849320 2206.0
77.968582200 2360.0
77.990315080 2174.0
78.012047960 2238.0
78.033780840 2152.0
78.055513720 2168.0
78.077246600 2109.0
78.098979480 2202.0
78.120712360 2113.0
78.142445240 2132.0
78.164178120 2158.0
78.185911000 2132.0
78.207643880 2252.0
78.229376760 2230.0
78.251109640 2212.0
78.272842520 2213.0
78.294575400 2085.0
78.316308280 2138.0
78.338041160 2135.0
78.359774040 2080.0
78.381506920 2148.0
78.403239800 2113.0
78.424972680 2088.0
78.446705560 2055.0
78.468438440 2163.0
78.490171320 2112.0
78.511904200 2156.0
78.533637080 2101.0
78.555369960 2098.0
78.577102840 1974.0
78.598835720 2072.0
78.620568600 2096.0
78.642301480 2158.0
78.664034360 2017.0
78.685767240 2026.0
78.707500120 2055.0
78.729233000 1984.0
78.750965880 2029.0
78.772698760 2138.0
78.794431640 2067.0
78.816164520 2035.0
78.837897400 2059.0
78.859630280 1959.0
78.881363160 2016.0
78.903096040 2002.0
78.924828920 2003.0
78.946561800 2030.0
78.968294680 2017.0
78.990027560 1908.0
79.011760440 2053.0
79.033493320 1953.0
79.055226200 1951.0
79.076959080 1988.0
79.098691960 1971.0
79.120424840 1925.0
79.142157720 2039.0
79.163890600 1976.0
79.185623480 1957.0
79.207356360 1946.0
79.229089240 1987.0
79.250822120 1907.0
79.272555000 1984.0
79.294287880 1981.0
79.316020760 1912.0
79.337753640 1922.0
79.359486520 1933.0
79.381219400 1941.0
79.402952280 1958.0
79.424685160 2021.0
79.446418040 1927.0
79.468150920 1967.0
79.489883800 1930.0
79.511616680 1968.0
79.533349560 1964.0
79.555082440 1986.0
79.576815320 1981.0
79.598548200 1919.0
79.620281080 2003.0
79.642013960 1934.0
79.663746840 1959.0
79.685479720 1854.0
79.707212600 1893.0
79.728945480 1966.0
79.750678360 1910.0
79.772411240 1903.0
79.794144120 2056.0
79.815877000 1952.0
79.837609880 1992.0
79.859342760 1969.0
79.881075640 1935.0
79.902808520 1965.0
79.924541400 2020.0
79.946274280 2070.0
79.968007160 2003.0
79.989740040 2062.0
80.011472920 2032.0
80.033205800 1978.0
80.054938680 2087.0
80.076671560 1897.0
80.098404440 2035.0
80.120137320 1993.0
80.141870200 1895.0
80.163603080 1985.0
80.185335960 2066.0
80.207068840 1945.0
80.228801720 1976.0
80.250534600 1949.0
80.272267480 1917.0
80.294000360 1948.0
80.315733240 1941.0
80.337466120 1974.0
80.359199000 1879.0
80.380931880 1883.0
80.402664760 1882.0
80.424397640 1784.0
80.446130520 1907.0
80.467863400 1853.0
80.489596280 1861.0
80.511329160 1790.0
80.533062040 1841.0
80.554794920 1863.0
80.576527800 1767.0
80.598260680 1735.0
80.619993560 1754.0
80.641726440 1912.0
80.663459320 1763.0
80.685192200 1859.0
80.706925080 1785.0
80.728657960 1774.0
80.750390840 1810.0
80.772123720 1793.0
80.793856600 1728.0
80.815589480 1794.0
80.837322360 1731.0
80.859055240 1752.0
80.880788120 1743.0
80.902521000 1707.0
80.924253880 1807.0
80.945986760 1792.0
80.967719640 1714.0
80.989452520 1705.0
81.011185400 1758.0
81.032918280 1714.0
81.054651160 1706.0
81.076384040 1697.0
81.098116920 1751.0
81.119849800 1719.0
81.141582680 1718.0
81.163315560 1763.0
81.185048440 1753.0
81.206781320 1723.0
81.228514200 1662.0
81.250247080 1706.0
81.271979960 1674.0
81.293712840 1675.0
81.315445720 1717.0
81.337178600 1718.0
81.358911480 1751.0
81.380644360 1693.0
81.402377240 1661.0
81.424110120 1654.0
81.445843000 1600.0
81.467575880 1750.0
81.489308760 1723.0
81.511041640 1686.0
81.532774520 1690.0
81.554507400 1742.0
81.576240280 1747.0
81.597973160 1653.0
81.619706040 1697.0
81.641438920 1681.0
81.663171800 1649.0
81.684904680 1669.0
81.706637560 1674.0
81.728370440 1715.0
81.750103320 1669.0
81.771836200 1768.0
81.793569080 1636.0
81.815301960 1661.0
81.837034840 1749.0
81.858767720 1717.0
81.880500600 1663.0
81.902233480 1625.0
81.923966360 1716.0
81.945699240 1706.0
81.967432120 1653.0
81.989165000 1683.0
82.010897880 1627.0
82.032630760 1616.0
82.054363640 1651.0
82.076096520 1604.0
82.097829400 1669.0
82.119562280 1637.0
82.141295160 1651.0
82.163028040 1665.0
82.184760920 1672.0
82.206493800 1647.0
82.228226680 1692.0
82.249959560 1711.0
82.271692440 1610.0
82.293425320 1671.0
82.315158200 1615.0
82.336891080 1667.0
82.358623960 1672.0
82.380356840 1620.0
82.402089720 1594.0
82.423822600 1627.0
82.445555480 1651.0
82.467288360 1593.0
82.489021240 1634.0
82.510754120 1620.0
82.532487000 1684.0
82.554219880 1504.0
82.575952760 1574.0
82.597685640 1643.0
82.619418520 1577.0
82.641151400 1531.0
82.662884280 1597.0
82.684617160 1635.0
82.706350040 1711.0
82.728082920 1666.0
82.749815800 1598.0
82.771548680 1654.0
82.793281560 1540.0
82.815014440 1547.0
82.836747320 1673.0
82.858480200 1565.0
82.880213080 1621.0
82.901945960 1571.0
82.923678840 1661.0
82.945411720 1617.0
82.967144600 1658.0
82.988877480 1671.0
83.010610360 1602.0
83.032343240 1625.0
83.054076120 1552.0
83.075809000 1529.0
83.097541880 1553.0
83.119274760 1544.0
83.141007640 1572.0
83.162740520 1550.0
83.184473400 1528.0
83.206206280 1550.0
83.227939160 1560.0
83.249672040 1568.0
83.271404920 1503.0
83.293137800 1566.0
83.314870680 1511.0
83.336603560 1513.0
83.358336440 1544.0
83.380069320 1538.0
83.401802200 1400.0
83.423535080 1548.0
83.445267960 1491.0
83.467000840 1498.0
83.488733720 1500.0
83.510466600 1479.0
83.532199480 1540.0
83.553932360 1547.0
83.575665240 1539.0
83.597398120 1511.0
83.619131000 1544.0
83.640863880 1573.0
83.662596760 1566.0
83.684329640 1607.0
83.706062520 1501.0
83.727795400 1538.0
83.749528280 1505.0
83.771261160 1477.0
83.792994040 1486.0
83.814726920 1601.0
83.836459800 1479.0
83.858192680 1538.0
83.879925560 1472.0
83.901658440 1534.0
83.923391320 1433.0
83.945124200 1531.0
83.966857080 1469.0
83.988589960 1486.0
84.010322840 1488.0
84.032055720 1529.0
84.053788600 1510.0
84.075521480 1447.0
84.097254360 1397.0
84.118987240 1492.0
84.140720120 1445.0
84.162453000 1414.0
84.184185880 1532.0
84.205918760 1401.0
84.227651640 1457.0
84.249384520 1432.0
84.271117400 1415.0
84.292850280 1454.0
84.314583160 1496.0
84.336316040 1426.0
84.358048920 1434.0
84.379781800 1477.0
84.401514680 1529.0
84.423247560 1426.0
84.444980440 1492.0
84.466713320 1492.0
84.488446200 1430.0
84.510179080 1419.0
84.531911960 1459.0
84.553644840 1477.0
84.575377720 1399.0
84.597110600 1513.0
84.618843480 1477.0
84.640576360 1383.0
84.662309240 1476.0
84.684042120 1470.0
84.705775000 1393.0
84.727507880 1431.0
84.749240760 1387.0
84.770973640 1434.0
84.792706520 1414.0
84.814439400 1474.0
84.836172280 1420.0
84.857905160 1394.0
84.879638040 1509.0
84.901370920 1408.0
84.923103800 1363.0
84.944836680 1388.0
84.966569560 1421.0
84.988302440 1357.0
85.010035320 1457.0
85.031768200 1450.0
85.053501080 1371.0
85.075233960 1417.0
85.096966840 1491.0
85.118699720 1431.0
85.140432600 1403.0
85.162165480 1425.0
85.183898360 1434.0
85.205631240 1454.0
85.227364120 1458.0
85.249097000 1368.0
85.270829880 1379.0
85.292562760 1431.0
85.314295640 1427.0
85.336028520 1376.0
85.357761400 1403.0
85.379494280 1420.0
85.401227160 1426.0
85.422960040 1414.0
85.444692920 1428.0
85.466425800 1405.0
85.488158680 1440.0
85.509891560 1433.0
85.531624440 1397.0
85.553357320 1385.0
85.575090200 1397.0
85.596823080 1386.0
85.618555960 1410.0
85.640288840 1389.0
85.662021720 1407.0
85.683754600 1405.0
85.705487480 1403.0
85.727220360 1433.0
85.748953240 1374.0
85.770686120 1440.0
85.792419000 1383.0
85.814151880 1383.0
85.835884760 1416.0
85.857617640 1409.0
85.879350520 1340.0
85.901083400 1361.0
85.922816280 1371.0
85.944549160 1396.0
85.966282040 1462.0
85.988014920 1335.0
86.009747800 1359.0
86.031480680 1402.0
86.053213560 1412.0
86.074946440 1376.0
86.096679320 1337.0
86.118412200 1378.0
86.140145080 1390.0
86.161877960 1352.0
86.183610840 1352.0
86.205343720 1401.0
86.227076600 1387.0
86.248809480 1396.0
86.270542360 1332.0
86.292275240 1298.0
86.314008120 1320.0
86.335741000 1458.0
86.357473880 1362.0
86.379206760 1350.0
86.400939640 1384.0
86.422672520 1343.0
86.444405400 1333.0
86.466138280 1345.0
86.487871160 1374.0
86.509604040 1387.0
86.531336920 1410.0
86.553069800 1384.0
86.574802680 1337.0
86.596535560 1338.0
86.618268440 1315.0
86.640001320 1342.0
86.661734200 1289.0
86.683467080 1267.0
86.705199960 1297.0
86.726932840 1314.0
86.748665720 1378.0
86.770398600 1319.0
86.792131480 1275.0
86.813864360 1371.0
86.835597240 1369.0
86.857330120 1438.0
86.879063000 1596.0
86.900795880 1806.0
86.922528760 1940.0
86.944261640 1745.0
86.965994520 1606.0
86.987727400 1424.0
87.009460280 1336.0
87.031193160 1322.0
87.052926040 1357.0
87.074658920 1345.0
87.096391800 1340.0
87.118124680 1330.0
87.139857560 1409.0
87.161590440 1478.0
87.183323320 1634.0
87.205056200 1547.0
87.226789080 1478.0
87.248521960 1325.0
87.270254840 1418.0
87.291987720 1307.0
87.313720600 1278.0
87.335453480 1300.0
87.357186360 1265.0
87.378919240 1343.0
87.400652120 1305.0
87.422385000 1297.0
87.444117880 1236.0
87.465850760 1250.0
87.487583640 1402.0
87.509316520 1293.0
87.531049400 1259.0
87.552782280 1351.0
87.574515160 1296.0
87.596248040 1339.0
87.617980920 1336.0
87.639713800 1289.0
87.661446680 1289.0
87.683179560 1344.0
87.704912440 1332.0
87.726645320 1273.0
87.748378200 1320.0
87.770111080 1270.0
87.791843960 1274.0
87.813576840 1313.0
87.835309720 1236.0
87.857042600 1272.0
87.878775480 1188.0
87.900508360 1286.0
87.922241240 1223.0
87.943974120 1199.0
87.965707000 1293.0
87.987439880 1203.0
88.009172760 1232.0
88.030905640 1186.0
88.052638520 1173.0
88.074371400 1205.0
88.096104280 1182.0
88.117837160 1276.0
88.139570040 1227.0
88.161302920 1232.0
88.183035800 1236.0
88.204768680 1244.0
88.226501560 1250.0
88.248234440 1200.0
88.269967320 1262.0
88.291700200 1307.0
88.313433080 1252.0
88.335165960 1238.0
88.356898840 1217.0
88.378631720 1229.0
88.400364600 1250.0
88.422097480 1267.0
88.443830360 1260.0
88.465563240 1251.0
88.487296120 1246.0
88.509029000 1201.0
88.530761880 1229.0
88.552494760 1280.0
88.574227640 1207.0
88.595960520 1237.0
88.617693400 1142.0
88.639426280 1210.0
88.661159160 1203.0
88.682892040 1245.0
88.704624920 1169.0
88.726357800 1147.0
88.748090680 1196.0
88.769823560 1188.0
88.791556440 1180.0
88.813289320 1280.0
88.835022200 1147.0
88.856755080 1238.0
88.878487960 1274.0
88.900220840 1205.0
88.921953720 1182.0
88.943686600 1173.0
88.965419480 1236.0
88.987152360 1229.0
89.008885240 1203.0
89.030618120 1242.0
89.052351000 1285.0
89.074083880 1225.0
89.095816760 1114.0
89.117549640 1207.0
89.139282520 1224.0
89.161015400 1186.0
89.182748280 1224.0
89.204481160 1159.0
89.226214040 1242.0
89.247946920 1199.0
89.269679800 1219.0
89.291412680 1139.0
89.313145560 1174.0
89.334878440 1215.0
89.356611320 1178.0
89.378344200 1153.0
89.400077080 1229.0
89.421809960 1193.0
89.443542840 1238.0
89.465275720 1176.0
89.487008600 1205.0
89.508741480 1181.0
89.530474360 1167.0
89.552207240 1176.0
89.573940120 1154.0
89.595673000 1227.0
89.617405880 1204.0
89.639138760 1158.0
89.660871640 1179.0
89.682604520 1165.0
89.704337400 1270.0
89.726070280 1229.0
89.747803160 1154.0
89.769536040 1149.0
89.791268920 1120.0
89.813001800 1159.0
89.834734680 1208.0
89.856467560 1136.0
89.878200440 1131.0
89.899933320 1169.0
89.921666200 1139.0
89.943399080 1145.0
89.965131960 1138.0
89.986864840 1184.0
90.008597720 1159.0
90.030330600 1157.0
90.052063480 1208.0
90.073796360 1052.0
90.095529240 1141.0
90.117262120 1087.0
90.138995000 1207.0
90.160727880 1220.0
90.182460760 1115.0
90.204193640 1145.0
90.225926520 1083.0
90.247659400 1108.0
90.269392280 1135.0
90.291125160 1137.0
90.312858040 1085.0
90.334590920 1104.0
90.356323800 1151.0
90.378056680 1196.0
90.399789560 1114.0
90.421522440 1191.0
90.443255320 1136.0
90.464988200 1132.0
90.486721080 1129.0
90.508453960 1146.0
90.530186840 1126.0
90.551919720 1150.0
90.573652600 1156.0
90.595385480 1129.0
90.617118360 1167.0
90.638851240 1053.0
90.660584120 1081.0
90.682317000 1066.0
90.704049880 1149.0
90.725782760 1089.0
90.747515640 1074.0
90.769248520 1113.0
90.790981400 1107.0
90.812714280 1048.0
90.834447160 1126.0
90.856180040 1104.0
90.877912920 1094.0
90.899645800 1134.0
90.921378680 1127.0
90.943111560 1168.0
90.964844440 1137.0
90.986577320 1150.0
91.008310200 1126.0
91.030043080 1119.0
91.051775960 1161.0
91.073508840 1137.0
91.095241720 1163.0
91.116974600 1128.0
91.138707480 1131.0
91.160440360 1145.0
91.182173240 1118.0
91.203906120 1120.0
91.225639000 1109.0
91.247371880 1108.0
91.269104760 1115.0
91.290837640 1117.0
91.312570520 1124.0
91.334303400 1132.0
91.356036280 1155.0
91.377769160 1090.0
91.399502040 1078.0
91.421234920 1072.0
91.442967800 1078.0
91.464700680 1128.0
91.486433560 1069.0
91.508166440 1106.0
91.529899320 1093.0
91.551632200 1097.0
91.573365080 1123.0
91.595097960 1119.0
91.616830840 1111.0
91.638563720 1119.0
91.660296600 1154.0
91.682029480 1039.0
91.703762360 1001.0
91.725495240 1092.0
91.747228120 1114.0
91.768961000 1050.0
91.790693880 1074.0
91.812426760 1070.0
91.834159640 1102.0
91.855892520 1075.0
91.877625400 1143.0
91.899358280 1143.0
91.921091160 1060.0
91.942824040 1089.0
91.964556920 1105.0
91.986289800 1045.0
92.008022680 1082.0
92.029755560 1104.0
92.051488440 1075.0
92.073221320 1019.0
92.094954200 1094.0
92.116687080 1087.0
92.138419960 1083.0
92.160152840 999.0
92.181885720 1031.0
92.203618600 1069.0
92.225351480 1063.0
92.247084360 1016.0
92.268817240 1032.0
92.290550120 1088.0
92.312283000 1085.0
92.334015880 1050.0
92.355748760 1053.0
92.377481640 994.0
92.399214520 1010.0
92.420947400 989.0
92.442680280 1019.0
92.464413160 1000.0
92.486146040 1030.0
92.507878920 976.0
92.529611800 1031.0
92.551344680 982.0
92.573077560 1048.0
92.594810440 1091.0
92.616543320 1037.0
92.638276200 1010.0
92.660009080 1014.0
92.681741960 939.0
92.703474840 1059.0
92.725207720 1090.0
92.746940600 967.0
92.768673480 987.0
92.790406360 1092.0
92.812139240 1003.0
92.833872120 997.0
92.855605000 1037.0
92.877337880 1082.0
92.899070760 1036.0
92.920803640 991.0
92.942536520 1032.0
92.964269400 1143.0
92.986002280 1053.0
93.007735160 1011.0
93.029468040 1042.0
93.051200920 1054.0
93.072933800 1019.0
93.094666680 1006.0
93.116399560 1042.0
93.138132440 1018.0
93.159865320 1002.0
93.181598200 1062.0
93.203331080 1036.0
93.225063960 1060.0
93.246796840 1033.0
93.268529720 965.0
93.290262600 939.0
93.311995480 1037.0
93.333728360 1066.0
93.355461240 1030.0
93.377194120 1009.0
93.398927000 1018.0
93.420659880 1087.0
93.442392760 988.0
93.464125640 990.0
93.485858520 987.0
93.507591400 941.0
93.529324280 1011.0
93.551057160 1009.0
93.572790040 962.0
93.594522920 1009.0
93.616255800 1014.0
93.637988680 1026.0
93.659721560 981.0
93.681454440 1000.0
93.703187320 904.0
93.724920200 1020.0
93.746653080 886.0
93.768385960 1019.0
93.790118840 1074.0
93.811851720 1000.0
93.833584600 963.0
93.855317480 951.0
93.877050360 929.0
93.898783240 1009.0
93.920516120 966.0
93.942249000 954.0
93.963981880 971.0
93.985714760 936.0
94.007447640 936.0
94.029180520 992.0
94.050913400 959.0
94.072646280 949.0
94.094379160 1023.0
94.116112040 1016.0
94.137844920 950.0
94.159577800 953.0
94.181310680 944.0
94.203043560 1022.0
94.224776440 1004.0
94.246509320 1018.0
94.268242200 951.0
94.289975080 960.0
94.311707960 928.0
94.333440840 1000.0
94.355173720 930.0
94.376906600 950.0
94.398639480 953.0
94.420372360 993.0
94.442105240 958.0
94.463838120 974.0
94.485571000 966.0
94.507303880 971.0
94.529036760 1011.0
94.550769640 953.0
94.572502520 964.0
94.594235400 978.0
94.615968280 974.0
94.637701160 907.0
94.659434040 941.0
94.681166920 936.0
94.702899800 938.0
94.724632680 934.0
94.746365560 945.0
94.768098440 981.0
94.789831320 978.0
94.811564200 921.0
94.833297080 1036.0
94.855029960 946.0
94.876762840 991.0
94.898495720 1034.0
94.920228600 979.0
94.941961480 990.0
94.963694360 972.0
94.985427240 1001.0
95.007160120 1092.0
95.028893000 1059.0
95.050625880 1075.0
95.072358760 1042.0
95.094091640 1015.0
95.115824520 952.0
95.137557400 930.0
95.159290280 913.0
95.181023160 973.0
95.202756040 994.0
95.224488920 966.0
95.246221800 943.0
95.267954680 987.0
95.289687560 993.0
95.311420440 930.0
95.333153320 946.0
95.354886200 913.0
95.376619080 972.0
95.398351960 921.0
95.420084840 919.0
95.441817720 918.0
95.463550600 913.0
95.485283480 905.0
95.507016360 943.0
95.528749240 849.0
95.550482120 947.0
95.572215000 937.0
95.593947880 893.0
95.615680760 978.0
95.637413640 916.0
95.659146520 953.0
95.680879400 946.0
95.702612280 896.0
95.724345160 948.0
95.746078040 949.0
95.767810920 964.0
95.789543800 948.0
95.811276680 965.0
95.833009560 952.0
95.854742440 1017.0
95.876475320 1026.0
95.898208200 1024.0
95.919941080 1088.0
95.941673960 1129.0
95.963406840 1146.0
95.985139720 1173.0
96.006872600 1168.0
96.028605480 1185.0
96.050338360 1137.0
96.072071240 1103.0
96.093804120 1026.0
96.115537000 973.0
96.137269880 971.0
96.159002760 999.0
96.180735640 969.0
96.202468520 997.0
96.224201400 942.0
96.245934280 977.0
96.267667160 1029.0
96.289400040 1032.0
96.311132920 964.0
96.332865800 979.0
96.354598680 1066.0
96.376331560 967.0
96.398064440 919.0
96.419797320 975.0
96.441530200 970.0
96.463263080 943.0
96.484995960 927.0
96.506728840 871.0
96.528461720 816.0
96.550194600 863.0
96.571927480 898.0
96.593660360 946.0
96.615393240 930.0
96.637126120 949.0
96.658859000 942.0
96.680591880 941.0
96.702324760 947.0
96.724057640 914.0
96.745790520 982.0
96.767523400 951.0
96.789256280 896.0
96.810989160 960.0
96.832722040 890.0
96.854454920 906.0
96.876187800 889.0
96.897920680 936.0
96.919653560 875.0
96.941386440 929.0
96.963119320 912.0
96.984852200 857.0
97.006585080 927.0
97.028317960 867.0
97.050050840 920.0
97.071783720 907.0
97.093516600 865.0
97.115249480 837.0
97.136982360 849.0
97.158715240 881.0
97.180448120 881.0
97.202181000 879.0
97.223913880 882.0
97.245646760 870.0
97.267379640 888.0
97.289112520 904.0
97.310845400 855.0
97.332578280 809.0
97.354311160 883.0
97.376044040 852.0
97.397776920 881.0
97.419509800 909.0
97.441242680 880.0
97.462975560 881.0
97.484708440 852.0
97.506441320 896.0
97.528174200 865.0
97.549907080 845.0
97.571639960 878.0
97.593372840 844.0
97.615105720 857.0
97.636838600 889.0
97.658571480 868.0
97.680304360 858.0
97.702037240 875.0
97.723770120 857.0
97.745503000 820.0
97.767235880 796.0
97.788968760 834.0
97.810701640 853.0
97.832434520 803.0
97.854167400 817.0
97.875900280 827.0
97.897633160 847.0
97.919366040 841.0
97.941098920 804.0
97.962831800 892.0
97.984564680 846.0
98.006297560 785.0
98.028030440 836.0
98.049763320 797.0
98.071496200 820.0
98.093229080 816.0
98.114961960 912.0
98.136694840 835.0
98.158427720 834.0
98.180160600 872.0
98.201893480 875.0
98.223626360 850.0
98.245359240 804.0
98.267092120 818.0
98.288825000 848.0
98.310557880 815.0
98.332290760 799.0
98.354023640 844.0
98.375756520 836.0
98.397489400 830.0
98.419222280 791.0
98.440955160 832.0
98.462688040 877.0
98.484420920 810.0
98.506153800 810.0
98.527886680 788.0
98.549619560 856.0
98.571352440 873.0
98.593085320 856.0
98.614818200 814.0
98.636551080 821.0
98.658283960 847.0
98.680016840 875.0
98.701749720 813.0
98.723482600 778.0
98.745215480 808.0
98.766948360 887.0
98.788681240 834.0
98.810414120 812.0
98.832147000 832.0
98.853879880 838.0
98.875612760 802.0
98.897345640 839.0
98.919078520 822.0
98.940811400 771.0
98.962544280 776.0
98.984277160 811.0
99.006010040 894.0
99.027742920 827.0
99.049475800 839.0
99.071208680 804.0
99.092941560 788.0
99.114674440 775.0
99.136407320 856.0
99.158140200 800.0
99.179873080 792.0
99.201605960 773.0
99.223338840 815.0
99.245071720 801.0
99.266804600 814.0
99.288537480 828.0
99.310270360 772.0
99.332003240 817.0
99.353736120 787.0
99.375469000 792.0
99.397201880 792.0
99.418934760 809.0
99.440667640 801.0
99.462400520 824.0
99.484133400 792.0
99.505866280 792.0
99.527599160 870.0
99.549332040 841.0
99.571064920 853.0
99.592797800 896.0
99.614530680 877.0
99.636263560 1005.0
99.657996440 1040.0
99.679729320 937.0
99.701462200 877.0
99.723195080 877.0
99.744927960 792.0
99.766660840 793.0
99.788393720 744.0
99.810126600 703.0
99.831859480 780.0
99.853592360 805.0
99.875325240 757.0
99.897058120 839.0
99.918791000 807.0
99.940523880 832.0
99.962256760 882.0
99.983989640 890.0
