10.011866440 504.0
10.033599320 478.0
10.055332200 491.0
10.077065080 536.0
10.098797960 595.0
10.120530840 524.0
10.142263720 556.0
10.163996600 544.0
10.185729480 603.0
10.207462360 577.0
10.229195240 590.0
10.250928120 619.0
10.272661000 579.0
10.294393880 629.0
10.316126760 590.0
10.337859640 620.0
10.359592520 529.0
10.381325400 649.0
10.403058280 610.0
10.424791160 695.0
10.446524040 629.0
10.468256920 656.0
10.489989800 627.0
10.511722680 646.0
10.533455560 715.0
10.555188440 674.0
10.576921320 715.0
10.598654200 644.0
10.620387080 737.0
10.642119960 745.0
10.663852840 742.0
10.685585720 728.0
10.707318600 716.0
10.729051480 758.0
10.750784360 689.0
10.772517240 744.0
10.794250120 745.0
10.815983000 753.0
10.837715880 718.0
10.859448760 763.0
10.881181640 753.0
10.902914520 783.0
10.924647400 747.0
10.946380280 775.0
10.968113160 773.0
10.989846040 786.0
11.011578920 806.0
11.033311800 764.0
11.055044680 787.0
11.076777560 833.0
11.098510440 853.0
11.120243320 810.0
11.141976200 811.0
11.163709080 847.0
11.185441960 860.0
11.207174840 815.0
11.228907720 818.0
11.250640600 816.0
11.272373480 866.0
11.294106360 827.0
11.315839240 892.0
11.337572120 860.0
11.359305000 893.0
11.381037880 867.0
11.402770760 859.0
11.424503640 867.0
11.446236520 863.0
11.467969400 854.0
11.489702280 875.0
11.511435160 908.0
11.533168040 922.0
11.554900920 943.0
11.576633800 931.0
11.598366680 919.0
11.620099560 942.0
11.641832440 876.0
11.663565320 917.0
11.685298200 913.0
11.707031080 914.0
11.728763960 981.0
11.750496840 943.0
11.772229720 955.0
11.793962600 939.0
11.815695480 1023.0
11.837428360 971.0
11.859161240 969.0
11.880894120 1009.0
11.902627000 939.0
11.924359880 1013.0
11.946092760 1016.0
11.967825640 1042.0
11.989558520 980.0
12.011291400 982.0
12.033024280 1011.0
12.054757160 1057.0
12.076490040 1062.0
12.098222920 1021.0
12.119955800 1036.0
12.141688680 1008.0
12.163421560 1035.0
12.185154440 1069.0
12.206887320 1125.0
12.228620200 1022.0
12.250353080 1030.0
12.272085960 1070.0
12.293818840 1120.0
12.315551720 1081.0
12.337284600 1097.0
12.359017480 1175.0
12.380750360 1134.0
12.402483240 1168.0
12.424216120 1082.0
12.445949000 1089.0
12.467681880 1030.0
12.489414760 1063.0
12.511147640 1094.0
12.532880520 1151.0
12.554613400 1094.0
12.576346280 1099.0
12.598079160 1106.0
12.619812040 1162.0
12.641544920 1187.0
12.663277800 1175.0
12.685010680 1168.0
12.706743560 1155.0
12.728476440 1147.0
12.750209320 1228.0
12.771942200 1210.0
12.793675080 1198.0
12.815407960 1250.0
12.837140840 1212.0
12.858873720 1203.0
12.880606600 1212.0
12.902339480 1219.0
12.924072360 1220.0
12.945805240 1235.0
12.967538120 1175.0
12.989271000 1260.0
13.011003880 1317.0
13.032736760 1299.0
13.054469640 1268.0
13.076202520 1290.0
13.097935400 1295.0
13.119668280 1257.0
13.141401160 1204.0
13.163134040 1250.0
13.184866920 1198.0
13.206599800 1233.0
13.228332680 1213.0
13.250065560 1337.0
13.271798440 1342.0
13.293531320 1248.0
13.315264200 1224.0
13.336997080 1277.0
13.358729960 1304.0
13.380462840 1302.0
13.402195720 1257.0
13.423928600 1282.0
13.445661480 1304.0
13.467394360 1242.0
13.489127240 1261.0
13.510860120 1306.0
13.532593000 1338.0
13.554325880 1347.0
13.576058760 1315.0
13.597791640 1308.0
13.619524520 1264.0
13.641257400 1304.0
13.662990280 1382.0
13.684723160 1346.0
13.706456040 1325.0
13.728188920 1331.0
13.749921800 1400.0
13.771654680 1400.0
13.793387560 1444.0
13.815120440 1412.0
13.836853320 1355.0
13.858586200 1395.0
13.880319080 1421.0
13.902051960 1348.0
13.923784840 1381.0
13.945517720 1380.0
13.967250600 1393.0
13.988983480 1416.0
14.010716360 1434.0
14.032449240 1468.0
14.054182120 1440.0
14.075915000 1424.0
14.097647880 1440.0
14.119380760 1407.0
14.141113640 1408.0
14.162846520 1483.0
14.184579400 1385.0
14.206312280 1367.0
14.228045160 1419.0
14.249778040 1453.0
14.271510920 1475.0
14.293243800 1461.0
14.314976680 1413.0
14.336709560 1479.0
14.358442440 1444.0
14.380175320 1458.0
14.401908200 1497.0
14.423641080 1441.0
14.445373960 1412.0
14.467106840 1518.0
14.488839720 1502.0
14.510572600 1452.0
14.532305480 1462.0
14.554038360 1486.0
14.575771240 1453.0
14.597504120 1499.0
14.619237000 1505.0
14.640969880 1564.0
14.662702760 1465.0
14.684435640 1533.0
14.706168520 1487.0
14.727901400 1524.0
14.749634280 1553.0
14.771367160 1469.0
14.793100040 1519.0
14.814832920 1529.0
14.836565800 1442.0
14.858298680 1504.0
14.880031560 1596.0
14.901764440 1598.0
14.923497320 1611.0
14.945230200 1567.0
14.966963080 1546.0
14.988695960 1580.0
15.010428840 1616.0
15.032161720 1527.0
15.053894600 1503.0
15.075627480 1560.0
15.097360360 1568.0
15.119093240 1585.0
15.140826120 1495.0
15.162559000 1546.0
15.184291880 1557.0
15.206024760 1593.0
15.227757640 1553.0
15.249490520 1589.0
15.271223400 1544.0
15.292956280 1547.0
15.314689160 1555.0
15.336422040 1583.0
15.358154920 1602.0
15.379887800 1614.0
15.401620680 1558.0
15.423353560 1568.0
15.445086440 1568.0
15.466819320 1595.0
15.488552200 1591.0
15.510285080 1561.0
15.532017960 1581.0
15.553750840 1604.0
15.575483720 1674.0
15.597216600 1600.0
15.618949480 1604.0
15.640682360 1627.0
15.662415240 1632.0
15.684148120 1601.0
15.705881000 1527.0
15.727613880 1518.0
15.749346760 1561.0
15.771079640 1571.0
15.792812520 1600.0
15.814545400 1569.0
15.836278280 1583.0
15.858011160 1613.0
15.879744040 1589.0
15.901476920 1639.0
15.923209800 1618.0
15.944942680 1540.0
15.966675560 1574.0
15.988408440 1685.0
16.010141320 1614.0
16.031874200 1630.0
16.053607080 1630.0
16.075339960 1607.0
16.097072840 1618.0
16.118805720 1600.0
16.140538600 1720.0
16.162271480 1611.0
16.184004360 1643.0
16.205737240 1588.0
16.227470120 1681.0
16.249203000 1741.0
16.270935880 1729.0
16.292668760 1684.0
16.314401640 1726.0
16.336134520 1681.0
16.357867400 1639.0
16.379600280 1700.0
16.401333160 1700.0
16.423066040 1568.0
16.444798920 1675.0
16.466531800 1703.0
16.488264680 1682.0
16.509997560 1669.0
16.531730440 1692.0
16.553463320 1740.0
16.575196200 1729.0
16.596929080 1655.0
16.618661960 1705.0
16.640394840 1661.0
16.662127720 1725.0
16.683860600 1780.0
16.705593480 1561.0
16.727326360 1657.0
16.749059240 1748.0
16.770792120 1655.0
16.792525000 1658.0
16.814257880 1680.0
16.835990760 1600.0
16.857723640 1647.0
16.879456520 1683.0
16.901189400 1701.0
16.922922280 1686.0
16.944655160 1593.0
16.966388040 1500.0
16.988120920 1663.0
17.009853800 1700.0
17.031586680 1707.0
17.053319560 1662.0
17.075052440 1681.0
17.096785320 1634.0
17.118518200 1624.0
17.140251080 1714.0
17.161983960 1638.0
17.183716840 1703.0
17.205449720 1696.0
17.227182600 1640.0
17.248915480 1668.0
17.270648360 1607.0
17.292381240 1701.0
17.314114120 1708.0
17.335847000 1720.0
17.357579880 1681.0
17.379312760 1647.0
17.401045640 1606.0
17.422778520 1673.0
17.444511400 1716.0
17.466244280 1698.0
17.487977160 1656.0
17.509710040 1660.0
17.531442920 1643.0
17.553175800 1662.0
17.574908680 1685.0
17.596641560 1657.0
17.618374440 1616.0
17.640107320 1707.0
17.661840200 1874.0
17.683573080 2388.0
17.705305960 2031.0
17.727038840 2083.0
17.748771720 1826.0
17.770504600 1726.0
17.792237480 1635.0
17.813970360 1644.0
17.835703240 1598.0
17.857436120 1697.0
17.879169000 1666.0
17.900901880 1723.0
17.922634760 1697.0
17.944367640 1696.0
17.966100520 1674.0
17.987833400 1755.0
18.009566280 1599.0
18.031299160 1633.0
18.053032040 1716.0
18.074764920 1630.0
18.096497800 1616.0
18.118230680 1643.0
18.139963560 1659.0
18.161696440 1702.0
18.183429320 1726.0
18.205162200 1703.0
18.226895080 1715.0
18.248627960 1674.0
18.270360840 1703.0
18.292093720 1598.0
18.313826600 1598.0
18.335559480 1648.0
18.357292360 1576.0
18.379025240 1584.0
18.400758120 1658.0
18.422491000 1694.0
18.444223880 1657.0
18.465956760 1630.0
18.487689640 1613.0
18.509422520 1627.0
18.531155400 1648.0
18.552888280 1620.0
18.574621160 1629.0
18.596354040 1716.0
18.618086920 1588.0
18.639819800 1563.0
18.661552680 1549.0
18.683285560 1594.0
18.705018440 1649.0
18.726751320 1698.0
18.748484200 1659.0
18.770217080 1547.0
18.791949960 1639.0
18.813682840 1575.0
18.835415720 1575.0
18.857148600 1555.0
18.878881480 1584.0
18.900614360 1606.0
18.922347240 1557.0
18.944080120 1568.0
18.965813000 1609.0
18.987545880 1698.0
19.009278760 1623.0
19.031011640 1636.0
19.052744520 1639.0
19.074477400 1663.0
19.096210280 1543.0
19.117943160 1611.0
19.139676040 1663.0
19.161408920 1625.0
19.183141800 1593.0
19.204874680 1635.0
19.226607560 1601.0
19.248340440 1591.0
19.270073320 1577.0
19.291806200 1499.0
19.313539080 1555.0
19.335271960 1643.0
19.357004840 1546.0
19.378737720 1555.0
19.400470600 1515.0
19.422203480 1538.0
19.443936360 1561.0
19.465669240 1590.0
19.487402120 1617.0
19.509135000 1617.0
19.530867880 1535.0
19.552600760 1601.0
19.574333640 1643.0
19.596066520 1647.0
19.617799400 1561.0
19.639532280 1544.0
19.661265160 1556.0
19.682998040 1582.0
19.704730920 1567.0
19.726463800 1579.0
19.748196680 1612.0
19.769929560 1612.0
19.791662440 1576.0
19.813395320 1556.0
19.835128200 1639.0
19.856861080 1559.0
19.878593960 1563.0
19.900326840 1578.0
19.922059720 1541.0
19.943792600 1634.0
19.965525480 1539.0
19.987258360 1585.0
20.008991240 1605.0
20.030724120 1509.0
20.052457000 1488.0
20.074189880 1611.0
20.095922760 1510.0
20.117655640 1515.0
20.139388520 1553.0
20.161121400 1550.0
20.182854280 1576.0
20.204587160 1568.0
20.226320040 1560.0
20.248052920 1564.0
20.269785800 1487.0
20.291518680 1526.0
20.313251560 1402.0
20.334984440 1422.0
20.356717320 1529.0
20.378450200 1574.0
20.400183080 1483.0
20.421915960 1494.0
20.443648840 1550.0
20.465381720 1500.0
20.487114600 1481.0
20.508847480 1510.0
20.530580360 1461.0
20.552313240 1449.0
20.574046120 1456.0
20.595779000 1553.0
20.617511880 1524.0
20.639244760 1539.0
20.660977640 1437.0
20.682710520 1548.0
20.704443400 1509.0
20.726176280 1484.0
20.747909160 1520.0
20.769642040 1471.0
20.791374920 1457.0
20.813107800 1437.0
20.834840680 1499.0
20.856573560 1449.0
20.878306440 1421.0
20.900039320 1382.0
20.921772200 1531.0
20.943505080 1450.0
20.965237960 1508.0
20.986970840 1471.0
21.008703720 1426.0
21.030436600 1487.0
21.052169480 1469.0
21.073902360 1427.0
21.095635240 1449.0
21.117368120 1444.0
21.139101000 1456.0
21.160833880 1418.0
21.182566760 1447.0
21.204299640 1391.0
21.226032520 1438.0
21.247765400 1401.0
21.269498280 1414.0
21.291231160 1464.0
21.312964040 1423.0
21.334696920 1476.0
21.356429800 1404.0
21.378162680 1370.0
21.399895560 1429.0
21.421628440 1364.0
21.443361320 1368.0
21.465094200 1414.0
21.486827080 1391.0
21.508559960 1450.0
21.530292840 1328.0
21.552025720 1351.0
21.573758600 1378.0
21.595491480 1383.0
21.617224360 1425.0
21.638957240 1463.0
21.660690120 1491.0
21.682423000 1319.0
21.704155880 1365.0
21.725888760 1328.0
21.747621640 1375.0
21.769354520 1396.0
21.791087400 1296.0
21.812820280 1293.0
21.834553160 1408.0
21.856286040 1352.0
21.878018920 1404.0
21.899751800 1331.0
21.921484680 1377.0
21.943217560 1354.0
21.964950440 1366.0
21.986683320 1313.0
22.008416200 1398.0
22.030149080 1369.0
22.051881960 1272.0
22.073614840 1373.0
22.095347720 1335.0
22.117080600 1397.0
22.138813480 1292.0
22.160546360 1287.0
22.182279240 1346.0
22.204012120 1293.0
22.225745000 1327.0
22.247477880 1342.0
22.269210760 1326.0
22.290943640 1360.0
22.312676520 1373.0
22.334409400 1319.0
22.356142280 1277.0
22.377875160 1324.0
22.399608040 1340.0
22.421340920 1314.0
22.443073800 1289.0
22.464806680 1266.0
22.486539560 1249.0
22.508272440 1292.0
22.530005320 1268.0
22.551738200 1268.0
22.573471080 1279.0
22.595203960 1351.0
22.616936840 1325.0
22.638669720 1310.0
22.660402600 1304.0
22.682135480 1337.0
22.703868360 1260.0
22.725601240 1203.0
22.747334120 1283.0
22.769067000 1261.0
22.790799880 1293.0
22.812532760 1264.0
22.834265640 1346.0
22.855998520 1294.0
22.877731400 1276.0
22.899464280 1267.0
22.921197160 1190.0
22.942930040 1143.0
22.964662920 1219.0
22.986395800 1219.0
23.008128680 1255.0
23.029861560 1173.0
23.051594440 1184.0
23.073327320 1081.0
23.095060200 1190.0
23.116793080 1185.0
23.138525960 1281.0
23.160258840 1167.0
23.181991720 1222.0
23.203724600 1122.0
23.225457480 1214.0
23.247190360 1185.0
23.268923240 1178.0
23.290656120 1187.0
23.312389000 1148.0
23.334121880 1128.0
23.355854760 1169.0
23.377587640 1241.0
23.399320520 1199.0
23.421053400 1247.0
23.442786280 1176.0
23.464519160 1098.0
23.486252040 1129.0
23.507984920 1176.0
23.529717800 1162.0
23.551450680 1109.0
23.573183560 1157.0
23.594916440 1107.0
23.616649320 1158.0
23.638382200 1176.0
23.660115080 1126.0
23.681847960 1163.0
23.703580840 1183.0
23.725313720 1153.0
23.747046600 1123.0
23.768779480 1047.0
23.790512360 1171.0
23.812245240 1173.0
23.833978120 1085.0
23.855711000 1109.0
23.877443880 1155.0
23.899176760 1044.0
23.920909640 1085.0
23.942642520 1069.0
23.964375400 1145.0
23.986108280 1100.0
24.007841160 1154.0
24.029574040 1046.0
24.051306920 1076.0
24.073039800 1119.0
24.094772680 1114.0
24.116505560 1094.0
24.138238440 1083.0
24.159971320 1069.0
24.181704200 1099.0
24.203437080 1027.0
24.225169960 1075.0
24.246902840 1084.0
24.268635720 1114.0
24.290368600 1116.0
24.312101480 1076.0
24.333834360 1008.0
24.355567240 1066.0
24.377300120 1098.0
24.399033000 1037.0
24.420765880 1022.0
24.442498760 1057.0
24.464231640 1020.0
24.485964520 1037.0
24.507697400 1041.0
24.529430280 1048.0
24.551163160 1088.0
24.572896040 1069.0
24.594628920 1023.0
24.616361800 1006.0
24.638094680 1039.0
24.659827560 1038.0
24.681560440 1042.0
24.703293320 1000.0
24.725026200 1009.0
24.746759080 1002.0
24.768491960 1039.0
24.790224840 973.0
24.811957720 1055.0
24.833690600 989.0
24.855423480 1094.0
24.877156360 1019.0
24.898889240 956.0
24.920622120 993.0
24.942355000 990.0
24.964087880 1006.0
24.985820760 984.0
25.007553640 992.0
25.029286520 1013.0
25.051019400 982.0
25.072752280 1003.0
25.094485160 971.0
25.116218040 1052.0
25.137950920 1007.0
25.159683800 985.0
25.181416680 1000.0
25.203149560 980.0
25.224882440 959.0
25.246615320 1044.0
25.268348200 1133.0
25.290081080 1090.0
25.311813960 959.0
25.333546840 990.0
25.355279720 992.0
25.377012600 997.0
25.398745480 920.0
25.420478360 1003.0
25.442211240 1003.0
25.463944120 963.0
25.485677000 974.0
25.507409880 944.0
25.529142760 955.0
25.550875640 920.0
25.572608520 925.0
25.594341400 960.0
25.616074280 1009.0
25.637807160 944.0
25.659540040 913.0
25.681272920 962.0
25.703005800 953.0
25.724738680 866.0
25.746471560 970.0
25.768204440 988.0
25.789937320 971.0
25.811670200 974.0
25.833403080 911.0
25.855135960 925.0
25.876868840 899.0
25.898601720 899.0
25.920334600 906.0
25.942067480 909.0
25.963800360 953.0
25.985533240 976.0
26.007266120 931.0
26.028999000 959.0
26.050731880 909.0
26.072464760 993.0
26.094197640 925.0
26.115930520 893.0
26.137663400 981.0
26.159396280 927.0
26.181129160 959.0
26.202862040 916.0
26.224594920 959.0
26.246327800 960.0
26.268060680 976.0
26.289793560 914.0
26.311526440 909.0
26.333259320 841.0
26.354992200 849.0
26.376725080 913.0
26.398457960 902.0
26.420190840 902.0
26.441923720 853.0
26.463656600 873.0
26.485389480 895.0
26.507122360 924.0
26.528855240 903.0
26.550588120 869.0
26.572321000 972.0
26.594053880 1260.0
26.615786760 1054.0
26.637519640 938.0
26.659252520 1047.0
26.680985400 1038.0
26.702718280 1007.0
26.724451160 924.0
26.746184040 909.0
26.767916920 958.0
26.789649800 909.0
26.811382680 877.0
26.833115560 869.0
26.854848440 853.0
26.876581320 841.0
26.898314200 848.0
26.920047080 870.0
26.941779960 888.0
26.963512840 849.0
26.985245720 861.0
27.006978600 929.0
27.028711480 887.0
27.050444360 875.0
27.072177240 943.0
27.093910120 836.0
27.115643000 848.0
27.137375880 838.0
27.159108760 842.0
27.180841640 865.0
27.202574520 835.0
27.224307400 882.0
27.246040280 844.0
27.267773160 869.0
27.289506040 818.0
27.311238920 850.0
27.332971800 840.0
27.354704680 785.0
27.376437560 831.0
27.398170440 803.0
27.419903320 794.0
27.441636200 807.0
27.463369080 768.0
27.485101960 776.0
27.506834840 818.0
27.528567720 726.0
27.550300600 701.0
27.572033480 759.0
27.593766360 817.0
27.615499240 820.0
27.637232120 786.0
27.658965000 782.0
27.680697880 790.0
27.702430760 825.0
27.724163640 729.0
27.745896520 769.0
27.767629400 778.0
27.789362280 729.0
27.811095160 761.0
27.832828040 754.0
27.854560920 726.0
27.876293800 785.0
27.898026680 704.0
27.919759560 687.0
27.941492440 759.0
27.963225320 716.0
27.984958200 667.0
28.006691080 743.0
28.028423960 734.0
28.050156840 719.0
28.071889720 743.0
28.093622600 703.0
28.115355480 712.0
28.137088360 744.0
28.158821240 674.0
28.180554120 655.0
28.202287000 666.0
28.224019880 751.0
28.245752760 676.0
28.267485640 674.0
28.289218520 675.0
28.310951400 747.0
28.332684280 708.0
28.354417160 720.0
28.376150040 742.0
28.397882920 671.0
28.419615800 695.0
28.441348680 705.0
28.463081560 738.0
28.484814440 675.0
28.506547320 701.0
28.528280200 689.0
28.550013080 723.0
28.571745960 682.0
28.593478840 666.0
28.615211720 677.0
28.636944600 621.0
28.658677480 675.0
28.680410360 751.0
28.702143240 696.0
28.723876120 651.0
28.745609000 689.0
28.767341880 676.0
28.789074760 635.0
28.810807640 675.0
28.832540520 678.0
28.854273400 668.0
28.876006280 663.0
28.897739160 647.0
28.919472040 653.0
28.941204920 654.0
28.962937800 675.0
28.984670680 627.0
29.006403560 647.0
29.028136440 662.0
29.049869320 583.0
29.071602200 635.0
29.093335080 625.0
29.115067960 617.0
29.136800840 631.0
29.158533720 611.0
29.180266600 618.0
29.201999480 639.0
29.223732360 555.0
29.245465240 659.0
29.267198120 604.0
29.288931000 645.0
29.310663880 605.0
29.332396760 617.0
29.354129640 603.0
29.375862520 589.0
29.397595400 562.0
29.419328280 573.0
29.441061160 571.0
29.462794040 592.0
29.484526920 634.0
29.506259800 625.0
29.527992680 643.0
29.549725560 726.0
29.571458440 732.0
29.593191320 662.0
29.614924200 602.0
29.636657080 556.0
29.658389960 566.0
29.680122840 596.0
29.701855720 606.0
29.723588600 563.0
29.745321480 573.0
29.767054360 605.0
29.788787240 613.0
29.810520120 589.0
29.832253000 586.0
29.853985880 545.0
29.875718760 593.0
29.897451640 564.0
29.919184520 540.0
29.940917400 564.0
29.962650280 557.0
29.984383160 544.0
30.006116040 585.0
30.027848920 581.0
30.049581800 604.0
30.071314680 553.0
30.093047560 577.0
30.114780440 594.0
30.136513320 571.0
30.158246200 543.0
30.179979080 566.0
30.201711960 528.0
30.223444840 511.0
30.245177720 548.0
30.266910600 551.0
30.288643480 513.0
30.310376360 586.0
30.332109240 577.0
30.353842120 572.0
30.375575000 558.0
30.397307880 534.0
30.419040760 519.0
30.440773640 557.0
30.462506520 602.0
30.484239400 584.0
30.505972280 549.0
30.527705160 535.0
30.549438040 569.0
30.571170920 506.0
30.592903800 547.0
30.614636680 526.0
30.636369560 542.0
30.658102440 487.0
30.679835320 532.0
30.701568200 536.0
30.723301080 512.0
30.745033960 561.0
30.766766840 533.0
30.788499720 557.0
30.810232600 530.0
30.831965480 510.0
30.853698360 505.0
30.875431240 516.0
30.897164120 540.0
30.918897000 538.0
30.940629880 529.0
30.962362760 507.0
30.984095640 532.0
31.005828520 550.0
31.027561400 540.0
31.049294280 493.0
31.071027160 557.0
31.092760040 567.0
31.114492920 513.0
31.136225800 546.0
31.157958680 557.0
31.179691560 519.0
31.201424440 527.0
31.223157320 508.0
31.244890200 509.0
31.266623080 513.0
31.288355960 539.0
31.310088840 535.0
31.331821720 492.0
31.353554600 500.0
31.375287480 476.0
31.397020360 492.0
31.418753240 550.0
31.440486120 563.0
31.462219000 538.0
31.483951880 581.0
31.505684760 503.0
31.527417640 532.0
31.549150520 556.0
31.570883400 534.0
31.592616280 484.0
31.614349160 540.0
31.636082040 482.0
31.657814920 528.0
31.679547800 536.0
31.701280680 541.0
31.723013560 556.0
31.744746440 589.0
31.766479320 590.0
31.788212200 585.0
31.809945080 613.0
31.831677960 655.0
31.853410840 738.0
31.875143720 806.0
31.896876600 1082.0
31.918609480 1015.0
31.940342360 833.0
31.962075240 794.0
31.983808120 796.0
32.005541000 828.0
32.027273880 889.0
32.049006760 963.0
32.070739640 1144.0
32.092472520 1468.0
32.114205400 2734.0
32.135938280 9004.0
32.157671160 23963.0
32.179404040 16042.0
32.201136920 4988.0
32.222869800 2212.0
32.244602680 1546.0
32.266335560 1154.0
32.288068440 1055.0
32.309801320 1034.0
32.331534200 958.0
32.353267080 922.0
32.374999960 835.0
32.396732840 813.0
32.418465720 801.0
32.440198600 826.0
32.461931480 747.0
32.483664360 793.0
32.505397240 759.0
32.527130120 790.0
32.548863000 747.0
32.570595880 757.0
32.592328760 651.0
32.614061640 636.0
32.635794520 663.0
32.657527400 639.0
32.679260280 668.0
32.700993160 666.0
32.722726040 644.0
32.744458920 685.0
32.766191800 687.0
32.787924680 720.0
32.809657560 663.0
32.831390440 652.0
32.853123320 661.0
32.874856200 695.0
32.896589080 701.0
32.918321960 677.0
32.940054840 615.0
32.961787720 589.0
32.983520600 647.0
33.005253480 666.0
33.026986360 655.0
33.048719240 547.0
33.070452120 656.0
33.092185000 627.0
33.113917880 620.0
33.135650760 593.0
33.157383640 644.0
33.179116520 657.0
33.200849400 632.0
33.222582280 662.0
33.244315160 628.0
33.266048040 683.0
33.287780920 636.0
33.309513800 621.0
33.331246680 638.0
33.352979560 588.0
33.374712440 619.0
33.396445320 597.0
33.418178200 599.0
33.439911080 592.0
33.461643960 631.0
33.483376840 582.0
33.505109720 592.0
33.526842600 620.0
33.548575480 661.0
33.570308360 689.0
33.592041240 644.0
33.613774120 683.0
33.635507000 686.0
33.657239880 687.0
33.678972760 667.0
33.700705640 676.0
33.722438520 640.0
33.744171400 640.0
33.765904280 636.0
33.787637160 667.0
33.809370040 703.0
33.831102920 668.0
33.852835800 651.0
33.874568680 656.0
33.896301560 721.0
33.918034440 742.0
33.939767320 691.0
33.961500200 693.0
33.983233080 710.0
34.004965960 657.0
34.026698840 722.0
34.048431720 733.0
34.070164600 746.0
34.091897480 792.0
34.113630360 798.0
34.135363240 858.0
34.157096120 950.0
34.178829000 880.0
34.200561880 840.0
34.222294760 840.0
34.244027640 924.0
34.265760520 921.0
34.287493400 923.0
34.309226280 1017.0
34.330959160 992.0
34.352692040 1002.0
34.374424920 1155.0
34.396157800 1561.0
34.417890680 2809.0
34.439623560 6601.0
34.461356440 9448.0
34.483089320 9867.0
34.504822200 9975.0
34.526555080 10353.0
34.548287960 10323.0
34.570020840 10246.0
34.591753720 10323.0
34.613486600 10322.0
34.635219480 10372.0
34.656952360 10542.0
34.678685240 10624.0
34.700418120 10761.0
34.722151000 10873.0
34.743883880 10797.0
34.765616760 10749.0
34.787349640 10898.0
34.809082520 10995.0
34.830815400 11162.0
34.852548280 11050.0
34.874281160 11179.0
34.896014040 11437.0
34.917746920 11232.0
34.939479800 11367.0
34.961212680 11451.0
34.982945560 11446.0
35.004678440 11779.0
35.026411320 11912.0
35.048144200 11911.0
35.069877080 12165.0
35.091609960 12652.0
35.113342840 12967.0
35.135075720 13398.0
35.156808600 13622.0
35.178541480 13796.0
35.200274360 15514.0
35.222007240 18541.0
35.243740120 22853.0
35.265473000 25958.0
35.287205880 28125.0
35.308938760 30678.0
35.330671640 33583.0
35.352404520 36276.0
35.374137400 38558.0
35.395870280 39896.0
35.417603160 42488.0
35.439336040 45173.0
35.461068920 50074.0
35.482801800 61885.0
35.504534680 84118.0
35.526267560 106768.0
35.548000440 111821.0
35.569733320 111231.0
35.591466200 132091.0
35.613199080 195312.0
35.634931960 386239.0
35.656664840 1508925.0
35.678397720 7319247.0
35.700130600 4813743.0
35.721863480 990581.0
35.743596360 777464.0
35.765329240 3098100.0
35.787062120 3154268.0
35.808795000 725283.0
35.830527880 227887.0
35.852260760 134172.0
35.873993640 98964.0
35.895726520 81387.0
35.917459400 69969.0
35.939192280 63379.0
35.960925160 58992.0
35.982658040 56440.0
36.004390920 53857.0
36.026123800 50750.0
36.047856680 44237.0
36.069589560 36058.0
36.091322440 31246.0
36.113055320 28603.0
36.134788200 25623.0
36.156521080 21291.0
36.178253960 17855.0
36.199986840 16140.0
36.221719720 15613.0
36.243452600 14880.0
36.265185480 14168.0
36.286918360 13907.0
36.308651240 13194.0
36.330384120 12809.0
36.352117000 12673.0
36.373849880 12153.0
36.395582760 11763.0
36.417315640 11728.0
36.439048520 11475.0
36.460781400 11290.0
36.482514280 11012.0
36.504247160 11034.0
36.525980040 10620.0
36.547712920 10602.0
36.569445800 10398.0
36.591178680 10183.0
36.612911560 9945.0
36.634644440 10055.0
36.656377320 9868.0
36.678110200 9719.0
36.699843080 9430.0
36.721575960 9505.0
36.743308840 9344.0
36.765041720 9166.0
36.786774600 9062.0
36.808507480 8985.0
36.830240360 8767.0
36.851973240 8707.0
36.873706120 8780.0
36.895439000 8833.0
36.917171880 8915.0
36.938904760 8635.0
36.960637640 8425.0
36.982370520 8489.0
37.004103400 8406.0
37.025836280 8311.0
37.047569160 8228.0
37.069302040 8226.0
37.091034920 8026.0
37.112767800 8240.0
37.134500680 8085.0
37.156233560 7990.0
37.177966440 7969.0
37.199699320 7826.0
37.221432200 7970.0
37.243165080 7896.0
37.264897960 7729.0
37.286630840 7785.0
37.308363720 7485.0
37.330096600 7659.0
37.351829480 7705.0
37.373562360 7444.0
37.395295240 7429.0
37.417028120 7461.0
37.438761000 7372.0
37.460493880 7215.0
37.482226760 7369.0
37.503959640 7369.0
37.525692520 7249.0
37.547425400 7128.0
37.569158280 7254.0
37.590891160 7156.0
37.612624040 7082.0
37.634356920 6938.0
37.656089800 6936.0
37.677822680 7053.0
37.699555560 6856.0
37.721288440 7048.0
37.743021320 6718.0
37.764754200 6767.0
37.786487080 6711.0
37.808219960 6777.0
37.829952840 6869.0
37.851685720 6747.0
37.873418600 6671.0
37.895151480 6779.0
37.916884360 6528.0
37.938617240 6545.0
37.960350120 6754.0
37.982083000 6511.0
38.003815880 6476.0
38.025548760 6357.0
38.047281640 6669.0
38.069014520 6492.0
38.090747400 6462.0
38.112480280 6428.0
38.134213160 6406.0
38.155946040 6397.0
38.177678920 6312.0
38.199411800 6282.0
38.221144680 6286.0
38.242877560 6321.0
38.264610440 6200.0
38.286343320 6245.0
38.308076200 6166.0
38.329809080 5972.0
38.351541960 6271.0
38.373274840 6200.0
38.395007720 5956.0
38.416740600 6057.0
38.438473480 6048.0
38.460206360 6216.0
38.481939240 6264.0
38.503672120 6310.0
38.525405000 6037.0
38.547137880 5870.0
38.568870760 5945.0
38.590603640 6114.0
38.612336520 6001.0
38.634069400 5727.0
38.655802280 5846.0
38.677535160 5704.0
38.699268040 5801.0
38.721000920 5717.0
38.742733800 5775.0
38.764466680 5726.0
38.786199560 5788.0
38.807932440 5690.0
38.829665320 5772.0
38.851398200 5883.0
38.873131080 6334.0
38.894863960 6532.0
38.916596840 6335.0
38.938329720 6353.0
38.960062600 6472.0
38.981795480 6302.0
39.003528360 6215.0
39.025261240 6088.0
39.046994120 5944.0
39.068727000 5942.0
39.090459880 5878.0
39.112192760 5802.0
39.133925640 5733.0
39.155658520 5708.0
39.177391400 5613.0
39.199124280 5645.0
39.220857160 5444.0
39.242590040 5314.0
39.264322920 5449.0
39.286055800 5548.0
39.307788680 5490.0
39.329521560 5446.0
39.351254440 5221.0
39.372987320 5344.0
39.394720200 5259.0
39.416453080 5355.0
39.438185960 5280.0
39.459918840 5313.0
39.481651720 5149.0
39.503384600 5092.0
39.525117480 5078.0
39.546850360 5362.0
39.568583240 5065.0
39.590316120 5131.0
39.612049000 5052.0
39.633781880 4965.0
39.655514760 5080.0
39.677247640 4888.0
39.698980520 5008.0
39.720713400 4903.0
39.742446280 4938.0
39.764179160 4730.0
39.785912040 4752.0
39.807644920 4710.0
39.829377800 4854.0
39.851110680 4780.0
39.872843560 4803.0
39.894576440 4670.0
39.916309320 4786.0
39.938042200 4792.0
39.959775080 4700.0
39.981507960 4644.0
40.003240840 4665.0
40.024973720 4632.0
40.046706600 4614.0
40.068439480 4621.0
40.090172360 4675.0
40.111905240 4606.0
40.133638120 4596.0
40.155371000 4510.0
40.177103880 4444.0
40.198836760 4577.0
40.220569640 4641.0
40.242302520 4664.0
40.264035400 4598.0
40.285768280 4434.0
40.307501160 4433.0
40.329234040 4491.0
40.350966920 4408.0
40.372699800 4370.0
40.394432680 4469.0
40.416165560 4349.0
40.437898440 4322.0
40.459631320 4378.0
40.481364200 4483.0
40.503097080 4223.0
40.524829960 4359.0
40.546562840 4320.0
40.568295720 4451.0
40.590028600 4365.0
40.611761480 4445.0
40.633494360 4357.0
40.655227240 4311.0
40.676960120 4368.0
40.698693000 4314.0
40.720425880 4466.0
40.742158760 4397.0
40.763891640 4295.0
40.785624520 4206.0
40.807357400 4331.0
40.829090280 4228.0
40.850823160 4277.0
40.872556040 4344.0
40.894288920 4426.0
40.916021800 4414.0
40.937754680 4199.0
40.959487560 4316.0
40.981220440 4192.0
41.002953320 4177.0
41.024686200 4085.0
41.046419080 4221.0
41.068151960 4155.0
41.089884840 4107.0
41.111617720 4224.0
41.133350600 4230.0
41.155083480 4118.0
41.176816360 4006.0
41.198549240 4187.0
41.220282120 4057.0
41.242015000 4068.0
41.263747880 4052.0
41.285480760 4129.0
41.307213640 4073.0
41.328946520 4060.0
41.350679400 4069.0
41.372412280 3970.0
41.394145160 3933.0
41.415878040 3934.0
41.437610920 3948.0
41.459343800 3899.0
41.481076680 3894.0
41.502809560 3916.0
41.524542440 3896.0
41.546275320 3871.0
41.568008200 3903.0
41.589741080 3805.0
41.611473960 3869.0
41.633206840 3771.0
41.654939720 3754.0
41.676672600 3701.0
41.698405480 3757.0
41.720138360 3892.0
41.741871240 3719.0
41.763604120 3717.0
41.785337000 3751.0
41.807069880 3768.0
41.828802760 3756.0
41.850535640 3753.0
41.872268520 3703.0
41.894001400 3639.0
41.915734280 3558.0
41.937467160 3798.0
41.959200040 3607.0
41.980932920 3605.0
42.002665800 3560.0
42.024398680 3620.0
42.046131560 3622.0
42.067864440 3687.0
42.089597320 3626.0
42.111330200 3702.0
42.133063080 3502.0
42.154795960 3561.0
42.176528840 3530.0
42.198261720 3557.0
42.219994600 3491.0
42.241727480 3507.0
42.263460360 3421.0
42.285193240 3552.0
42.306926120 3434.0
42.328659000 3384.0
42.350391880 3482.0
42.372124760 3548.0
42.393857640 3507.0
42.415590520 3396.0
42.437323400 3401.0
42.459056280 3357.0
42.480789160 3443.0
42.502522040 3482.0
42.524254920 3409.0
42.545987800 3417.0
42.567720680 3370.0
42.589453560 3379.0
42.611186440 3278.0
42.632919320 3305.0
42.654652200 3277.0
42.676385080 3202.0
42.698117960 3183.0
42.719850840 3196.0
42.741583720 3251.0
42.763316600 3201.0
42.785049480 3238.0
42.806782360 3177.0
42.828515240 3197.0
42.850248120 3152.0
42.871981000 3206.0
42.893713880 3171.0
42.915446760 3185.0
42.937179640 3218.0
42.958912520 3212.0
42.980645400 3091.0
43.002378280 3202.0
43.024111160 3163.0
43.045844040 3116.0
43.067576920 3164.0
43.089309800 3106.0
43.111042680 3050.0
43.132775560 2984.0
43.154508440 2947.0
43.176241320 3074.0
43.197974200 3007.0
43.219707080 2956.0
43.241439960 3051.0
43.263172840 3118.0
43.284905720 2988.0
43.306638600 3060.0
43.328371480 2899.0
43.350104360 2948.0
43.371837240 2977.0
43.393570120 2900.0
43.415303000 2960.0
43.437035880 2939.0
43.458768760 2848.0
43.480501640 2936.0
43.502234520 2929.0
43.523967400 2804.0
43.545700280 2783.0
43.567433160 2865.0
43.589166040 2895.0
43.610898920 2859.0
43.632631800 2837.0
43.654364680 2889.0
43.676097560 2952.0
43.697830440 2789.0
43.719563320 2748.0
43.741296200 2707.0
43.763029080 2779.0
43.784761960 2864.0
43.806494840 2723.0
43.828227720 2677.0
43.849960600 2681.0
43.871693480 2783.0
43.893426360 2840.0
43.915159240 2779.0
43.936892120 2633.0
43.958625000 2693.0
43.980357880 2705.0
44.002090760 2650.0
44.023823640 2737.0
44.045556520 2644.0
44.067289400 2621.0
44.089022280 2680.0
44.110755160 2624.0
44.132488040 2651.0
44.154220920 2540.0
44.175953800 2741.0
44.197686680 2611.0
44.219419560 2624.0
44.241152440 2582.0
44.262885320 2550.0
44.284618200 2583.0
44.306351080 2523.0
44.328083960 2572.0
44.349816840 2558.0
44.371549720 2517.0
44.393282600 2663.0
44.415015480 2437.0
44.436748360 2561.0
44.458481240 2531.0
44.480214120 2482.0
44.501947000 2506.0
44.523679880 2479.0
44.545412760 2534.0
44.567145640 2563.0
44.588878520 2606.0
44.610611400 2874.0
44.632344280 3103.0
44.654077160 2719.0
44.675810040 2643.0
44.697542920 2509.0
44.719275800 2522.0
44.741008680 2492.0
44.762741560 2451.0
44.784474440 2450.0
44.806207320 2381.0
44.827940200 2382.0
44.849673080 2372.0
44.871405960 2398.0
44.893138840 2409.0
44.914871720 2301.0
44.936604600 2400.0
44.958337480 2265.0
44.980070360 2433.0
45.001803240 2437.0
45.023536120 2264.0
45.045269000 2335.0
45.067001880 2288.0
45.088734760 2357.0
45.110467640 2339.0
45.132200520 2270.0
45.153933400 2249.0
45.175666280 2188.0
45.197399160 2189.0
45.219132040 2333.0
45.240864920 2503.0
45.262597800 2623.0
45.284330680 2424.0
45.306063560 2360.0
45.327796440 2200.0
45.349529320 2527.0
45.371262200 2308.0
45.392995080 2187.0
45.414727960 2084.0
45.436460840 2184.0
45.458193720 2125.0
45.479926600 2204.0
45.501659480 2117.0
45.523392360 2113.0
45.545125240 2133.0
45.566858120 2125.0
45.588591000 2128.0
45.610323880 2044.0
45.632056760 2039.0
45.653789640 2098.0
45.675522520 2026.0
45.697255400 2042.0
45.718988280 2069.0
45.740721160 2061.0
45.762454040 2020.0
45.784186920 2010.0
45.805919800 1997.0
45.827652680 2050.0
45.849385560 1994.0
45.871118440 2031.0
45.892851320 2009.0
45.914584200 2072.0
45.936317080 1973.0
45.958049960 1950.0
45.979782840 1990.0
46.001515720 1935.0
46.023248600 1935.0
46.044981480 1951.0
46.066714360 1852.0
46.088447240 1828.0
46.110180120 1940.0
46.131913000 1926.0
46.153645880 1935.0
46.175378760 1888.0
46.197111640 1942.0
46.218844520 1855.0
46.240577400 1925.0
46.262310280 1895.0
46.284043160 1932.0
46.305776040 1845.0
46.327508920 1856.0
46.349241800 1862.0
46.370974680 1839.0
46.392707560 1798.0
46.414440440 1858.0
46.436173320 1899.0
46.457906200 1785.0
46.479639080 1735.0
46.501371960 1824.0
46.523104840 1822.0
46.544837720 1785.0
46.566570600 1778.0
46.588303480 1742.0
46.610036360 1743.0
46.631769240 1724.0
46.653502120 1763.0
46.675235000 1744.0
46.696967880 1791.0
46.718700760 1740.0
46.740433640 1697.0
46.762166520 1762.0
46.783899400 1756.0
46.805632280 1730.0
46.827365160 1650.0
46.849098040 1718.0
46.870830920 1750.0
46.892563800 1600.0
46.914296680 1689.0
46.936029560 1633.0
46.957762440 1666.0
46.979495320 1680.0
47.001228200 1653.0
47.022961080 1635.0
47.044693960 1578.0
47.066426840 1623.0
47.088159720 1659.0
47.109892600 1677.0
47.131625480 1675.0
47.153358360 1526.0
47.175091240 1628.0
47.196824120 1568.0
47.218557000 1562.0
47.240289880 1528.0
47.262022760 1505.0
47.283755640 1616.0
47.305488520 1529.0
47.327221400 1478.0
47.348954280 1531.0
47.370687160 1497.0
47.392420040 1560.0
47.414152920 1550.0
47.435885800 1584.0
47.457618680 1532.0
47.479351560 1538.0
47.501084440 1514.0
47.522817320 1547.0
47.544550200 1547.0
47.566283080 1476.0
47.588015960 1486.0
47.609748840 1450.0
47.631481720 1500.0
47.653214600 1482.0
47.674947480 1462.0
47.696680360 1429.0
47.718413240 1506.0
47.740146120 1459.0
47.761879000 1498.0
47.783611880 1534.0
47.805344760 1518.0
47.827077640 1485.0
47.848810520 1457.0
47.870543400 1500.0
47.892276280 1462.0
47.914009160 1400.0
47.935742040 1432.0
47.957474920 1392.0
47.979207800 1495.0
48.000940680 1373.0
48.022673560 1433.0
48.044406440 1454.0
48.066139320 1410.0
48.087872200 1385.0
48.109605080 1432.0
48.131337960 1356.0
48.153070840 1359.0
48.174803720 1354.0
48.196536600 1368.0
48.218269480 1354.0
48.240002360 1347.0
48.261735240 1353.0
48.283468120 1294.0
48.305201000 1347.0
48.326933880 1354.0
48.348666760 1298.0
48.370399640 1368.0
48.392132520 1333.0
48.413865400 1262.0
48.435598280 1306.0
48.457331160 1372.0
48.479064040 1280.0
48.500796920 1342.0
48.522529800 1369.0
48.544262680 1300.0
48.565995560 1279.0
48.587728440 1295.0
48.609461320 1302.0
48.631194200 1251.0
48.652927080 1336.0
48.674659960 1350.0
48.696392840 1248.0
48.718125720 1263.0
48.739858600 1278.0
48.761591480 1368.0
48.783324360 1297.0
48.805057240 1261.0
48.826790120 1294.0
48.848523000 1237.0
48.870255880 1229.0
48.891988760 1281.0
48.913721640 1195.0
48.935454520 1197.0
48.957187400 1303.0
48.978920280 1271.0
49.000653160 1245.0
49.022386040 1228.0
49.044118920 1206.0
49.065851800 1210.0
49.087584680 1279.0
49.109317560 1178.0
49.131050440 1248.0
49.152783320 1206.0
49.174516200 1243.0
49.196249080 1219.0
49.217981960 1249.0
49.239714840 1294.0
49.261447720 1262.0
49.283180600 1248.0
49.304913480 1342.0
49.326646360 1491.0
49.348379240 1954.0
49.370112120 3247.0
49.391845000 2454.0
49.413577880 1719.0
49.435310760 1570.0
49.457043640 2069.0
49.478776520 2141.0
49.500509400 1569.0
49.522242280 1258.0
49.543975160 1190.0
49.565708040 1177.0
49.587440920 1205.0
49.609173800 1113.0
49.630906680 1174.0
49.652639560 1180.0
49.674372440 1141.0
49.696105320 1114.0
49.717838200 1119.0
49.739571080 1085.0
49.761303960 1101.0
49.783036840 1046.0
49.804769720 1086.0
49.826502600 1114.0
49.848235480 1061.0
49.869968360 1135.0
49.891701240 1076.0
49.913434120 1068.0
49.935167000 1026.0
49.956899880 1016.0
49.978632760 1039.0
50.000365640 1080.0
50.022098520 1026.0
50.043831400 984.0
50.065564280 1039.0
50.087297160 1018.0
50.109030040 1042.0
50.130762920 1073.0
50.152495800 1041.0
50.174228680 993.0
50.195961560 1085.0
50.217694440 1024.0
50.239427320 1030.0
50.261160200 1003.0
50.282893080 982.0
50.304625960 940.0
50.326358840 1009.0
50.348091720 1000.0
50.369824600 983.0
50.391557480 1010.0
50.413290360 980.0
50.435023240 1026.0
50.456756120 1040.0
50.478489000 949.0
50.500221880 1031.0
50.521954760 1012.0
50.543687640 984.0
50.565420520 990.0
50.587153400 993.0
50.608886280 1003.0
50.630619160 989.0
50.652352040 937.0
50.674084920 951.0
50.695817800 892.0
50.717550680 907.0
50.739283560 982.0
50.761016440 876.0
50.782749320 933.0
50.804482200 918.0
50.826215080 956.0
50.847947960 947.0
50.869680840 932.0
50.891413720 876.0
50.913146600 922.0
50.934879480 924.0
50.956612360 891.0
50.978345240 919.0
51.000078120 892.0
51.021811000 863.0
51.043543880 935.0
51.065276760 878.0
51.087009640 904.0
51.108742520 869.0
51.130475400 922.0
51.152208280 825.0
51.173941160 882.0
51.195674040 888.0
51.217406920 896.0
51.239139800 896.0
51.260872680 913.0
51.282605560 887.0
51.304338440 953.0
51.326071320 916.0
51.347804200 843.0
51.369537080 840.0
51.391269960 867.0
51.413002840 914.0
51.434735720 867.0
51.456468600 835.0
51.478201480 838.0
51.499934360 847.0
51.521667240 859.0
51.543400120 826.0
51.565133000 833.0
51.586865880 850.0
51.608598760 856.0
51.630331640 824.0
51.652064520 844.0
51.673797400 848.0
51.695530280 871.0
51.717263160 838.0
51.738996040 843.0
51.760728920 836.0
51.782461800 810.0
51.804194680 834.0
51.825927560 772.0
51.847660440 818.0
51.869393320 845.0
51.891126200 807.0
51.912859080 867.0
51.934591960 802.0
51.956324840 793.0
51.978057720 784.0
51.999790600 761.0
52.021523480 825.0
52.043256360 769.0
52.064989240 746.0
52.086722120 758.0
52.108455000 765.0
52.130187880 774.0
52.151920760 786.0
52.173653640 810.0
52.195386520 741.0
52.217119400 727.0
52.238852280 794.0
52.260585160 751.0
52.282318040 734.0
52.304050920 784.0
52.325783800 752.0
52.347516680 695.0
52.369249560 746.0
52.390982440 765.0
52.412715320 759.0
52.434448200 770.0
52.456181080 757.0
52.477913960 718.0
52.499646840 747.0
52.521379720 769.0
52.543112600 785.0
52.564845480 759.0
52.586578360 723.0
52.608311240 730.0
52.630044120 720.0
52.651777000 733.0
52.673509880 717.0
52.695242760 704.0
52.716975640 712.0
52.738708520 693.0
52.760441400 709.0
52.782174280 702.0
52.803907160 715.0
52.825640040 713.0
52.847372920 692.0
52.869105800 689.0
52.890838680 631.0
52.912571560 680.0
52.934304440 719.0
52.956037320 711.0
52.977770200 707.0
52.999503080 685.0
53.021235960 713.0
53.042968840 700.0
53.064701720 729.0
53.086434600 614.0
53.108167480 681.0
53.129900360 663.0
53.151633240 640.0
53.173366120 634.0
53.195099000 678.0
53.216831880 629.0
53.238564760 660.0
53.260297640 620.0
53.282030520 662.0
53.303763400 692.0
53.325496280 650.0
53.347229160 681.0
53.368962040 678.0
53.390694920 648.0
53.412427800 634.0
53.434160680 597.0
53.455893560 651.0
53.477626440 663.0
53.499359320 658.0
53.521092200 664.0
53.542825080 618.0
53.564557960 634.0
53.586290840 623.0
53.608023720 641.0
53.629756600 654.0
53.651489480 632.0
53.673222360 605.0
53.694955240 647.0
53.716688120 656.0
53.738421000 580.0
53.760153880 639.0
53.781886760 620.0
53.803619640 598.0
53.825352520 613.0
53.847085400 558.0
53.868818280 572.0
53.890551160 610.0
53.912284040 606.0
53.934016920 607.0
53.955749800 563.0
53.977482680 626.0
53.999215560 600.0
54.020948440 579.0
54.042681320 566.0
54.064414200 631.0
54.086147080 638.0
54.107879960 631.0
54.129612840 658.0
54.151345720 636.0
54.173078600 553.0
54.194811480 640.0
54.216544360 586.0
54.238277240 629.0
54.260010120 576.0
54.281743000 634.0
54.303475880 564.0
54.325208760 523.0
54.346941640 591.0
54.368674520 608.0
54.390407400 577.0
54.412140280 568.0
54.433873160 545.0
54.455606040 557.0
54.477338920 541.0
54.499071800 621.0
54.520804680 626.0
54.542537560 549.0
54.564270440 538.0
54.586003320 629.0
54.607736200 679.0
54.629469080 922.0
54.651201960 930.0
54.672934840 702.0
54.694667720 596.0
54.716400600 551.0
54.738133480 589.0
54.759866360 663.0
54.781599240 738.0
54.803332120 700.0
54.825065000 575.0
54.846797880 530.0
54.868530760 529.0
54.890263640 562.0
54.911996520 538.0
54.933729400 556.0
54.955462280 597.0
54.977195160 563.0
54.998928040 569.0
55.020660920 548.0
55.042393800 569.0
55.064126680 512.0
55.085859560 512.0
55.107592440 557.0
55.129325320 571.0
55.151058200 525.0
55.172791080 518.0
55.194523960 564.0
55.216256840 533.0
55.237989720 486.0
55.259722600 481.0
55.281455480 577.0
55.303188360 498.0
55.324921240 526.0
55.346654120 516.0
55.368387000 520.0
55.390119880 555.0
55.411852760 527.0
55.433585640 496.0
55.455318520 509.0
55.477051400 519.0
55.498784280 519.0
55.520517160 521.0
55.542250040 511.0
55.563982920 495.0
55.585715800 511.0
55.607448680 517.0
55.629181560 521.0
55.650914440 528.0
55.672647320 522.0
55.694380200 498.0
55.716113080 485.0
55.737845960 483.0
55.759578840 514.0
55.781311720 462.0
55.803044600 477.0
55.824777480 472.0
55.846510360 527.0
55.868243240 492.0
55.889976120 484.0
55.911709000 506.0
55.933441880 494.0
55.955174760 463.0
55.976907640 481.0
55.998640520 499.0
56.020373400 532.0
56.042106280 470.0
56.063839160 453.0
56.085572040 475.0
56.107304920 492.0
56.129037800 491.0
56.150770680 475.0
56.172503560 429.0
56.194236440 446.0
56.215969320 474.0
56.237702200 459.0
56.259435080 456.0
56.281167960 463.0
56.302900840 458.0
56.324633720 446.0
56.346366600 502.0
56.368099480 468.0
56.389832360 443.0
56.411565240 468.0
56.433298120 464.0
56.455031000 490.0
56.476763880 486.0
56.498496760 416.0
56.520229640 461.0
56.541962520 430.0
56.563695400 460.0
56.585428280 433.0
56.607161160 445.0
56.628894040 470.0
56.650626920 510.0
56.672359800 439.0
56.694092680 426.0
56.715825560 437.0
56.737558440 426.0
56.759291320 436.0
56.781024200 485.0
56.802757080 446.0
56.824489960 431.0
56.846222840 433.0
56.867955720 442.0
56.889688600 408.0
56.911421480 408.0
56.933154360 472.0
56.954887240 426.0
56.976620120 400.0
56.998353000 434.0
57.020085880 461.0
57.041818760 463.0
57.063551640 403.0
57.085284520 439.0
57.107017400 427.0
57.128750280 442.0
57.150483160 416.0
57.172216040 443.0
57.193948920 424.0
57.215681800 416.0
57.237414680 426.0
57.259147560 428.0
57.280880440 394.0
57.302613320 405.0
57.324346200 384.0
57.346079080 411.0
57.367811960 384.0
57.389544840 431.0
57.411277720 400.0
57.433010600 379.0
57.454743480 433.0
57.476476360 440.0
57.498209240 399.0
57.519942120 407.0
57.541675000 426.0
57.563407880 446.0
57.585140760 382.0
57.606873640 392.0
57.628606520 384.0
57.650339400 386.0
57.672072280 399.0
57.693805160 384.0
57.715538040 408.0
57.737270920 417.0
57.759003800 362.0
57.780736680 382.0
57.802469560 384.0
57.824202440 394.0
57.845935320 372.0
57.867668200 426.0
57.889401080 392.0
57.911133960 403.0
57.932866840 375.0
57.954599720 379.0
57.976332600 401.0
57.998065480 359.0
58.019798360 396.0
58.041531240 424.0
58.063264120 385.0
58.084997000 420.0
58.106729880 405.0
58.128462760 375.0
58.150195640 375.0
58.171928520 363.0
58.193661400 342.0
58.215394280 407.0
58.237127160 386.0
58.258860040 411.0
58.280592920 346.0
58.302325800 379.0
58.324058680 396.0
58.345791560 376.0
58.367524440 403.0
58.389257320 376.0
58.410990200 376.0
58.432723080 382.0
58.454455960 387.0
58.476188840 372.0
58.497921720 359.0
58.519654600 395.0
58.541387480 359.0
58.563120360 383.0
58.584853240 321.0
58.606586120 344.0
58.628319000 394.0
58.650051880 360.0
58.671784760 349.0
58.693517640 376.0
58.715250520 342.0
58.736983400 365.0
58.758716280 382.0
58.780449160 373.0
58.802182040 400.0
58.823914920 351.0
58.845647800 344.0
58.867380680 401.0
58.889113560 367.0
58.910846440 364.0
58.932579320 386.0
58.954312200 373.0
58.976045080 339.0
58.997777960 336.0
59.019510840 329.0
59.041243720 382.0
59.062976600 363.0
59.084709480 369.0
59.106442360 331.0
59.128175240 350.0
59.149908120 380.0
59.171641000 350.0
59.193373880 364.0
59.215106760 344.0
59.236839640 362.0
59.258572520 369.0
59.280305400 373.0
59.302038280 350.0
59.323771160 367.0
59.345504040 340.0
59.367236920 326.0
59.388969800 347.0
59.410702680 357.0
59.432435560 335.0
59.454168440 341.0
59.475901320 326.0
59.497634200 344.0
59.519367080 341.0
59.541099960 331.0
59.562832840 375.0
59.584565720 329.0
59.606298600 332.0
59.628031480 331.0
59.649764360 348.0
59.671497240 342.0
59.693230120 380.0
59.714963000 336.0
59.736695880 337.0
59.758428760 340.0
59.780161640 325.0
59.801894520 350.0
59.823627400 320.0
59.845360280 325.0
59.867093160 333.0
59.888826040 307.0
59.910558920 339.0
59.932291800 328.0
59.954024680 322.0
59.975757560 287.0
59.997490440 319.0
60.019223320 316.0
60.040956200 328.0
60.062689080 355.0
60.084421960 339.0
60.106154840 332.0
60.127887720 331.0
60.149620600 336.0
60.171353480 323.0
60.193086360 286.0
60.214819240 317.0
60.236552120 309.0
60.258285000 296.0
60.280017880 320.0
60.301750760 313.0
60.323483640 305.0
60.345216520 314.0
60.366949400 312.0
60.388682280 308.0
60.410415160 317.0
60.432148040 330.0
60.453880920 325.0
60.475613800 304.0
60.497346680 309.0
60.519079560 299.0
60.540812440 335.0
60.562545320 330.0
60.584278200 321.0
60.606011080 343.0
60.627743960 302.0
60.649476840 294.0
60.671209720 288.0
60.692942600 304.0
60.714675480 340.0
60.736408360 303.0
60.758141240 304.0
60.779874120 299.0
60.801607000 311.0
60.823339880 305.0
60.845072760 321.0
60.866805640 316.0
60.888538520 289.0
60.910271400 306.0
60.932004280 331.0
60.953737160 332.0
60.975470040 331.0
60.997202920 307.0
61.018935800 298.0
61.040668680 332.0
61.062401560 293.0
61.084134440 322.0
61.105867320 317.0
61.127600200 352.0
61.149333080 301.0
61.171065960 287.0
61.192798840 345.0
61.214531720 339.0
61.236264600 349.0
61.257997480 312.0
61.279730360 267.0
61.301463240 320.0
61.323196120 286.0
61.344929000 302.0
61.366661880 344.0
61.388394760 277.0
61.410127640 292.0
61.431860520 317.0
61.453593400 299.0
61.475326280 262.0
61.497059160 276.0
61.518792040 308.0
61.540524920 295.0
61.562257800 312.0
61.583990680 290.0
61.605723560 271.0
61.627456440 295.0
61.649189320 303.0
61.670922200 325.0
61.692655080 269.0
61.714387960 273.0
61.736120840 322.0
61.757853720 236.0
61.779586600 303.0
61.801319480 274.0
61.823052360 303.0
61.844785240 282.0
61.866518120 294.0
61.888251000 313.0
61.909983880 304.0
61.931716760 283.0
61.953449640 295.0
61.975182520 295.0
61.996915400 316.0
62.018648280 293.0
62.040381160 281.0
62.062114040 289.0
62.083846920 294.0
62.105579800 292.0
62.127312680 285.0
62.149045560 325.0
62.170778440 276.0
62.192511320 294.0
62.214244200 305.0
62.235977080 278.0
62.257709960 296.0
62.279442840 272.0
62.301175720 311.0
62.322908600 302.0
62.344641480 259.0
62.366374360 270.0
62.388107240 295.0
62.409840120 281.0
62.431573000 270.0
62.453305880 241.0
62.475038760 259.0
62.496771640 282.0
62.518504520 276.0
62.540237400 265.0
62.561970280 266.0
62.583703160 281.0
62.605436040 294.0
62.627168920 289.0
62.648901800 272.0
62.670634680 265.0
62.692367560 233.0
62.714100440 242.0
62.735833320 290.0
62.757566200 248.0
62.779299080 281.0
62.801031960 264.0
62.822764840 265.0
62.844497720 268.0
62.866230600 286.0
62.887963480 240.0
62.909696360 267.0
62.931429240 245.0
62.953162120 260.0
62.974895000 280.0
62.996627880 279.0
63.018360760 258.0
63.040093640 266.0
63.061826520 225.0
63.083559400 309.0
63.105292280 271.0
63.127025160 266.0
63.148758040 277.0
63.170490920 258.0
63.192223800 277.0
63.213956680 258.0
63.235689560 228.0
63.257422440 272.0
63.279155320 286.0
63.300888200 284.0
63.322621080 275.0
63.344353960 265.0
63.366086840 272.0
63.387819720 259.0
63.409552600 298.0
63.431285480 242.0
63.453018360 260.0
63.474751240 257.0
63.496484120 278.0
63.518217000 272.0
63.539949880 273.0
63.561682760 273.0
63.583415640 288.0
63.605148520 256.0
63.626881400 264.0
63.648614280 266.0
63.670347160 264.0
63.692080040 236.0
63.713812920 266.0
63.735545800 276.0
63.757278680 256.0
63.779011560 260.0
63.800744440 282.0
63.822477320 279.0
63.844210200 262.0
63.865943080 300.0
63.887675960 271.0
63.909408840 239.0
63.931141720 222.0
63.952874600 281.0
63.974607480 285.0
63.996340360 246.0
64.018073240 215.0
64.039806120 232.0
64.061539000 257.0
64.083271880 264.0
64.105004760 270.0
64.126737640 244.0
64.148470520 269.0
64.170203400 260.0
64.191936280 244.0
64.213669160 270.0
64.235402040 237.0
64.257134920 278.0
64.278867800 237.0
64.300600680 265.0
64.322333560 271.0
64.344066440 308.0
64.365799320 257.0
64.387532200 239.0
64.409265080 260.0
64.430997960 220.0
64.452730840 235.0
64.474463720 269.0
64.496196600 248.0
64.517929480 266.0
64.539662360 281.0
64.561395240 237.0
64.583128120 230.0
64.604861000 223.0
64.626593880 236.0
64.648326760 275.0
64.670059640 230.0
64.691792520 261.0
64.713525400 314.0
64.735258280 300.0
64.756991160 307.0
64.778724040 262.0
64.800456920 242.0
64.822189800 286.0
64.843922680 244.0
64.865655560 228.0
64.887388440 233.0
64.909121320 276.0
64.930854200 279.0
64.952587080 242.0
64.974319960 284.0
64.996052840 299.0
65.017785720 199.0
65.039518600 229.0
65.061251480 246.0
65.082984360 236.0
65.104717240 219.0
65.126450120 259.0
65.148183000 245.0
65.169915880 240.0
65.191648760 233.0
65.213381640 263.0
65.235114520 244.0
65.256847400 210.0
65.278580280 195.0
65.300313160 208.0
65.322046040 240.0
65.343778920 261.0
65.365511800 240.0
65.387244680 226.0
65.408977560 263.0
65.430710440 240.0
65.452443320 281.0
65.474176200 221.0
65.495909080 227.0
65.517641960 273.0
65.539374840 238.0
65.561107720 273.0
65.582840600 279.0
65.604573480 267.0
65.626306360 235.0
65.648039240 232.0
65.669772120 245.0
65.691505000 246.0
65.713237880 262.0
65.734970760 235.0
65.756703640 225.0
65.778436520 231.0
65.800169400 225.0
65.821902280 280.0
65.843635160 234.0
65.865368040 225.0
65.887100920 200.0
65.908833800 258.0
65.930566680 242.0
65.952299560 240.0
65.974032440 214.0
65.995765320 240.0
66.017498200 228.0
66.039231080 261.0
66.060963960 239.0
66.082696840 226.0
66.104429720 222.0
66.126162600 226.0
66.147895480 262.0
66.169628360 262.0
66.191361240 278.0
66.213094120 241.0
66.234827000 237.0
66.256559880 226.0
66.278292760 228.0
66.300025640 219.0
66.321758520 214.0
66.343491400 262.0
66.365224280 235.0
66.386957160 229.0
66.408690040 236.0
66.430422920 233.0
66.452155800 271.0
66.473888680 234.0
66.495621560 279.0
66.517354440 316.0
66.539087320 295.0
66.560820200 300.0
66.582553080 287.0
66.604285960 269.0
66.626018840 257.0
66.647751720 278.0
66.669484600 239.0
66.691217480 212.0
66.712950360 233.0
66.734683240 275.0
66.756416120 244.0
66.778149000 266.0
66.799881880 245.0
66.821614760 256.0
66.843347640 288.0
66.865080520 291.0
66.886813400 282.0
66.908546280 292.0
66.930279160 312.0
66.952012040 325.0
66.973744920 324.0
66.995477800 392.0
67.017210680 415.0
67.038943560 558.0
67.060676440 795.0
67.082409320 1399.0
67.104142200 2340.0
67.125875080 2985.0
67.147607960 2119.0
67.169340840 1099.0
67.191073720 733.0
67.212806600 539.0
67.234539480 441.0
67.256272360 309.0
67.278005240 326.0
67.299738120 316.0
67.321471000 343.0
67.343203880 321.0
67.364936760 242.0
67.386669640 287.0
67.408402520 284.0
67.430135400 280.0
67.451868280 267.0
67.473601160 243.0
67.495334040 259.0
67.517066920 256.0
67.538799800 264.0
67.560532680 230.0
67.582265560 239.0
67.603998440 264.0
67.625731320 260.0
67.647464200 244.0
67.669197080 201.0
67.690929960 266.0
67.712662840 236.0
67.734395720 228.0
67.756128600 259.0
67.777861480 267.0
67.799594360 232.0
67.821327240 234.0
67.843060120 235.0
67.864793000 240.0
67.886525880 257.0
67.908258760 229.0
67.929991640 246.0
67.951724520 199.0
67.973457400 221.0
67.995190280 209.0
68.016923160 224.0
68.038656040 215.0
68.060388920 221.0
68.082121800 222.0
68.103854680 247.0
68.125587560 242.0
68.147320440 210.0
68.169053320 239.0
68.190786200 246.0
68.212519080 213.0
68.234251960 210.0
68.255984840 247.0
68.277717720 261.0
68.299450600 220.0
68.321183480 226.0
68.342916360 210.0
68.364649240 233.0
68.386382120 221.0
68.408115000 227.0
68.429847880 263.0
68.451580760 234.0
68.473313640 236.0
68.495046520 218.0
68.516779400 218.0
68.538512280 217.0
68.560245160 184.0
68.581978040 213.0
68.603710920 196.0
68.625443800 221.0
68.647176680 206.0
68.668909560 214.0
68.690642440 234.0
68.712375320 222.0
68.734108200 236.0
68.755841080 196.0
68.777573960 205.0
68.799306840 223.0
68.821039720 215.0
68.842772600 193.0
68.864505480 233.0
68.886238360 264.0
68.907971240 217.0
68.929704120 240.0
68.951437000 279.0
68.973169880 209.0
68.994902760 209.0
69.016635640 222.0
69.038368520 237.0
69.060101400 175.0
69.081834280 227.0
69.103567160 220.0
69.125300040 234.0
69.147032920 229.0
69.168765800 209.0
69.190498680 212.0
69.212231560 212.0
69.233964440 221.0
69.255697320 225.0
69.277430200 193.0
69.299163080 225.0
69.320895960 205.0
69.342628840 236.0
69.364361720 204.0
69.386094600 205.0
69.407827480 181.0
69.429560360 232.0
69.451293240 210.0
69.473026120 216.0
69.494759000 236.0
69.516491880 241.0
69.538224760 239.0
69.559957640 205.0
69.581690520 240.0
69.603423400 269.0
69.625156280 237.0
69.646889160 258.0
69.668622040 208.0
69.690354920 233.0
69.712087800 244.0
69.733820680 233.0
69.755553560 197.0
69.777286440 225.0
69.799019320 225.0
69.820752200 181.0
69.842485080 210.0
69.864217960 216.0
69.885950840 218.0
69.907683720 193.0
69.929416600 200.0
69.951149480 212.0
69.972882360 217.0
69.994615240 234.0
70.016348120 236.0
70.038081000 218.0
70.059813880 209.0
70.081546760 243.0
70.103279640 238.0
70.125012520 216.0
70.146745400 206.0
70.168478280 208.0
70.190211160 227.0
70.211944040 224.0
70.233676920 227.0
70.255409800 204.0
70.277142680 219.0
70.298875560 214.0
70.320608440 196.0
70.342341320 204.0
70.364074200 218.0
70.385807080 245.0
70.407539960 214.0
70.429272840 217.0
70.451005720 213.0
70.472738600 218.0
70.494471480 189.0
70.516204360 216.0
70.537937240 236.0
70.559670120 208.0
70.581403000 247.0
70.603135880 210.0
70.624868760 224.0
70.646601640 181.0
70.668334520 195.0
70.690067400 217.0
70.711800280 216.0
70.733533160 229.0
70.755266040 203.0
70.776998920 201.0
70.798731800 207.0
70.820464680 207.0
70.842197560 236.0
70.863930440 241.0
70.885663320 223.0
70.907396200 228.0
70.929129080 247.0
70.950861960 269.0
70.972594840 234.0
70.994327720 203.0
71.016060600 204.0
71.037793480 231.0
71.059526360 223.0
71.081259240 207.0
71.102992120 191.0
71.124725000 214.0
71.146457880 216.0
71.168190760 218.0
71.189923640 191.0
71.211656520 213.0
71.233389400 215.0
71.255122280 259.0
71.276855160 234.0
71.298588040 204.0
71.320320920 214.0
71.342053800 216.0
71.363786680 242.0
71.385519560 209.0
71.407252440 240.0
71.428985320 212.0
71.450718200 186.0
71.472451080 190.0
71.494183960 223.0
71.515916840 215.0
71.537649720 198.0
71.559382600 227.0
71.581115480 229.0
71.602848360 204.0
71.624581240 225.0
71.646314120 218.0
71.668047000 209.0
71.689779880 185.0
71.711512760 197.0
71.733245640 228.0
71.754978520 247.0
71.776711400 203.0
71.798444280 201.0
71.820177160 225.0
71.841910040 207.0
71.863642920 221.0
71.885375800 205.0
71.907108680 211.0
71.928841560 228.0
71.950574440 242.0
71.972307320 193.0
71.994040200 220.0
72.015773080 196.0
72.037505960 210.0
72.059238840 209.0
72.080971720 218.0
72.102704600 263.0
72.124437480 210.0
72.146170360 239.0
72.167903240 237.0
72.189636120 243.0
72.211369000 259.0
72.233101880 242.0
72.254834760 273.0
72.276567640 272.0
72.298300520 246.0
72.320033400 266.0
72.341766280 238.0
72.363499160 322.0
72.385232040 351.0
72.406964920 424.0
72.428697800 610.0
72.450430680 832.0
72.472163560 869.0
72.493896440 929.0
72.515629320 931.0
72.537362200 928.0
72.559095080 947.0
72.580827960 941.0
72.602560840 1001.0
72.624293720 973.0
72.646026600 953.0
72.667759480 1007.0
72.689492360 1010.0
72.711225240 969.0
72.732958120 1021.0
72.754691000 946.0
72.776423880 952.0
72.798156760 970.0
72.819889640 980.0
72.841622520 1015.0
72.863355400 950.0
72.885088280 1021.0
72.906821160 1014.0
72.928554040 980.0
72.950286920 1027.0
72.972019800 992.0
72.993752680 1026.0
73.015485560 991.0
73.037218440 970.0
73.058951320 1023.0
73.080684200 984.0
73.102417080 1037.0
73.124149960 1018.0
73.145882840 967.0
73.167615720 1071.0
73.189348600 1077.0
73.211081480 1036.0
73.232814360 1023.0
73.254547240 1077.0
73.276280120 990.0
73.298013000 1036.0
73.319745880 1053.0
73.341478760 1094.0
73.363211640 1028.0
73.384944520 1042.0
73.406677400 1024.0
73.428410280 1044.0
73.450143160 1078.0
73.471876040 1074.0
73.493608920 1101.0
73.515341800 1095.0
73.537074680 1103.0
73.558807560 1105.0
73.580540440 1051.0
73.602273320 1065.0
73.624006200 1102.0
73.645739080 1093.0
73.667471960 1060.0
73.689204840 1123.0
73.710937720 1057.0
73.732670600 1148.0
73.754403480 1044.0
73.776136360 1066.0
73.797869240 1088.0
73.819602120 1116.0
73.841335000 1015.0
73.863067880 1073.0
73.884800760 1166.0
73.906533640 1065.0
73.928266520 1182.0
73.949999400 1114.0
73.971732280 1109.0
73.993465160 1155.0
74.015198040 1187.0
74.036930920 1112.0
74.058663800 1129.0
74.080396680 1223.0
74.102129560 1167.0
74.123862440 1186.0
74.145595320 1210.0
74.167328200 1192.0
74.189061080 1195.0
74.210793960 1211.0
74.232526840 1194.0
74.254259720 1234.0
74.275992600 1316.0
74.297725480 1246.0
74.319458360 1288.0
74.341191240 1256.0
74.362924120 1299.0
74.384657000 1388.0
74.406389880 1345.0
74.428122760 1365.0
74.449855640 1401.0
74.471588520 1386.0
74.493321400 1452.0
74.515054280 1428.0
74.536787160 1494.0
74.558520040 1509.0
74.580252920 1535.0
74.601985800 1646.0
74.623718680 1639.0
74.645451560 1756.0
74.667184440 1652.0
74.688917320 1770.0
74.710650200 1854.0
74.732383080 1893.0
74.754115960 1906.0
74.775848840 2015.0
74.797581720 2122.0
74.819314600 2220.0
74.841047480 2370.0
74.862780360 2472.0
74.884513240 2667.0
74.906246120 3067.0
74.927979000 3568.0
74.949711880 4569.0
74.971444760 5823.0
74.993177640 7093.0
75.014910520 8147.0
75.036643400 8813.0
75.058376280 9154.0
75.080109160 9265.0
75.101842040 8921.0
75.123574920 8836.0
75.145307800 9070.0
75.167040680 9897.0
75.188773560 11265.0
75.210506440 12616.0
75.232239320 15395.0
75.253972200 18341.0
75.275705080 23051.0
75.297437960 29524.0
75.319170840 41114.0
75.340903720 64742.0
75.362636600 129444.0
75.384369480 385706.0
75.406102360 905785.0
75.427835240 680736.0
75.449568120 295584.0
75.471301000 126704.0
75.493033880 66066.0
75.514766760 44453.0
75.536499640 39881.0
75.558232520 47114.0
75.579965400 76448.0
75.601698280 185863.0
75.623431160 408097.0
75.645164040 369136.0
75.666896920 180791.0
75.688629800 79991.0
75.710362680 41447.0
75.732095560 26151.0
75.753828440 18913.0
75.775561320 14910.0
75.797294200 11938.0
75.819027080 9574.0
75.840759960 8651.0
75.862492840 7534.0
75.884225720 7048.0
75.905958600 6496.0
75.927691480 6056.0
75.949424360 5644.0
75.971157240 5206.0
75.992890120 4710.0
76.014623000 3993.0
76.036355880 3425.0
76.058088760 2976.0
76.079821640 2760.0
76.101554520 2718.0
76.123287400 2550.0
76.145020280 2471.0
76.166753160 2245.0
76.188486040 2295.0
76.210218920 2167.0
76.231951800 2064.0
76.253684680 2028.0
76.275417560 2014.0
76.297150440 1955.0
76.318883320 1900.0
76.340616200 1818.0
76.362349080 1739.0
76.384081960 1731.0
76.405814840 1722.0
76.427547720 1581.0
76.449280600 1661.0
76.471013480 1696.0
76.492746360 1543.0
76.514479240 1564.0
76.536212120 1485.0
76.557945000 1502.0
76.579677880 1393.0
76.601410760 1487.0
76.623143640 1350.0
76.644876520 1384.0
76.666609400 1362.0
76.688342280 1406.0
76.710075160 1354.0
76.731808040 1313.0
76.753540920 1318.0
76.775273800 1253.0
76.797006680 1246.0
76.818739560 1248.0
76.840472440 1238.0
76.862205320 1262.0
76.883938200 1169.0
76.905671080 1186.0
76.927403960 1178.0
76.949136840 1142.0
76.970869720 1144.0
76.992602600 1110.0
77.014335480 1141.0
77.036068360 1142.0
77.057801240 1127.0
77.079534120 1105.0
77.101267000 1089.0
77.122999880 1067.0
77.144732760 1084.0
77.166465640 1040.0
77.188198520 1055.0
77.209931400 1043.0
77.231664280 972.0
77.253397160 1005.0
77.275130040 1010.0
77.296862920 972.0
77.318595800 968.0
77.340328680 979.0
77.362061560 1013.0
77.383794440 989.0
77.405527320 963.0
77.427260200 977.0
77.448993080 1007.0
77.470725960 933.0
77.492458840 942.0
77.514191720 926.0
77.535924600 869.0
77.557657480 898.0
77.579390360 897.0
77.601123240 891.0
77.622856120 916.0
77.644589000 880.0
77.666321880 954.0
77.688054760 898.0
77.709787640 919.0
77.731520520 901.0
77.753253400 916.0
77.774986280 850.0
77.796719160 846.0
77.818452040 878.0
77.840184920 857.0
77.861917800 858.0
77.883650680 871.0
77.905383560 804.0
77.927116440 878.0
77.948849320 787.0
77.970582200 804.0
77.992315080 853.0
78.014047960 864.0
78.035780840 868.0
78.057513720 819.0
78.079246600 848.0
78.100979480 864.0
78.122712360 777.0
78.144445240 813.0
78.166178120 779.0
78.187911000 784.0
78.209643880 782.0
78.231376760 829.0
78.253109640 785.0
78.274842520 809.0
78.296575400 822.0
78.318308280 847.0
78.340041160 804.0
78.361774040 773.0
78.383506920 753.0
78.405239800 766.0
78.426972680 781.0
78.448705560 743.0
78.470438440 764.0
78.492171320 751.0
78.513904200 800.0
78.535637080 697.0
78.557369960 758.0
78.579102840 735.0
78.600835720 748.0
78.622568600 786.0
78.644301480 725.0
78.666034360 702.0
78.687767240 712.0
78.709500120 750.0
78.731233000 775.0
78.752965880 749.0
78.774698760 711.0
78.796431640 734.0
78.818164520 748.0
78.839897400 703.0
78.861630280 716.0
78.883363160 706.0
78.905096040 736.0
78.926828920 742.0
78.948561800 704.0
78.970294680 704.0
78.992027560 727.0
79.013760440 694.0
79.035493320 697.0
79.057226200 719.0
79.078959080 702.0
79.100691960 734.0
79.122424840 714.0
79.144157720 696.0
79.165890600 702.0
79.187623480 655.0
79.209356360 690.0
79.231089240 711.0
79.252822120 668.0
79.274555000 685.0
79.296287880 706.0
79.318020760 738.0
79.339753640 705.0
79.361486520 702.0
79.383219400 685.0
79.404952280 628.0
79.426685160 666.0
79.448418040 705.0
79.470150920 722.0
79.491883800 663.0
79.513616680 674.0
79.535349560 688.0
79.557082440 582.0
79.578815320 631.0
79.600548200 640.0
79.622281080 648.0
79.644013960 699.0
79.665746840 674.0
79.687479720 612.0
79.709212600 661.0
79.730945480 664.0
79.752678360 666.0
79.774411240 651.0
79.796144120 641.0
79.817877000 640.0
79.839609880 673.0
79.861342760 643.0
79.883075640 606.0
79.904808520 677.0
79.926541400 638.0
79.948274280 616.0
79.970007160 581.0
79.991740040 660.0
